-0.10101,0.56645,0.11126,0.2514,-0.0029612,0.27093,0.058271,0.079173,0.067857,-0.36787,-0.039376,-0.053812,-0.25554,-0.14472,0.071502,0.021746,-0.04516,-0.065221,-0.16063,0.054556,-0.054522,-0.043598,-0.077003,0.32817,-0.23768,-0.11649,-0.36093,0.12928,0.049671,0.084547,-0.047623,0.099532,-0.071473,0.071428,0.054521,0.33033,-0.0365,-0.048579,-0.12236,-0.31883,0.061785,-0.061735,-0.021178,0.11804,0.061734,-0.039376,-0.053812,-0.25554,-0.14472,0.071502,1,-0.054522,-0.36093,0.071427,-0.061735,-0.012308,0.057778,0.093465,0.15816,-0.069672,0.069628,-0.98394,-0.11288,-0.069627,0.057187,0.069628,0.27851,0.090587,0.30202,-0.46349,0.078139,-0.12216,-0.27755,0.40013,0.072628,0.13621,-0.12216,0.28853,-0.049829,-0.084708,0.046643,-0.099944,0.071673,-0.071627,-0.054673,-0.33007,-1,-0.061907,-0.071627,0.069822,-0.072343,-0.051579,-0.065118,-0.16135,-0.31262,0.081641,-0.08158,-0.092991,0.090293,0.081579,0.96583,-0.08158,0.083067,0.13625,-0.081807
-0.92784,0.19275,-0.13026,0.087363,-0.082745,0.64325,-0.052231,0.087951,0.49471,0.075338,-0.0095958,-0.0092404,-0.18502,0.15564,-0.15727,0.099696,-0.12863,-0.12797,-0.076509,0.076014,0.021041,0.098951,-0.16646,0.29956,0.29434,0.090272,0.41697,-0.070632,0.13722,-0.13495,0.099359,-0.060149,0.11701,0.28662,-0.11716,0.5388,0.054171,0.00098095,0.60919,0.17797,0.74744,-0.12681,0.066496,0.50434,0.35699,-0.22236,0.20195,-0.13549,0.072716,-0.093635,0.85808,0.040401,0.20296,0.32734,-0.074106,0.099875,-0.12874,-0.12796,-0.076661,0.076165,0.021034,1,-0.070813,-0.11579,0.06666,0.040771,0.25306,-0.14552,0.70699,0.42734,0.75323,-0.30242,-0.078467,0.16778,0.044692,0.66177,-0.34565,-0.078508,-0.082753,0.03501,-0.010456,0.068689,-0.069379,0.044802,0.069235,0.17277,-0.69913,-0.044494,-0.17045,0.067421,0.016876,0.3965,-0.29273,0.40623,-0.096511,0.84172,-0.19361,0.055762,0.018244,0.19989,0.60041,-0.24842,0.056103,0.75391,-0.17487
0.075884,0.1,0.095619,-0.46595,0.3286,0.023763,-0.083678,0.08524,-0.1357,-0.19908,-0.30952,0.055911,-0.097807,0.20365,-0.077073,-0.085598,-0.12117,-0.33391,-0.040896,-0.11163,-0.053336,-0.25496,0.11054,-0.47612,0.23485,-0.34302,-0.40494,0.3927,0.078762,0.99844,0.1113,0.33033,0.09091,0.05979,-0.11685,0.10431,-0.083679,0.08524,-0.1357,-0.19908,1,-0.077075,-0.11163,-0.34301,0.090909,0.27649,-0.059784,0.11961,-0.34046,0.074121,-0.96195,0.097755,0.40141,-0.064871,0.074122,0.06911,-0.07515,0.30659,-0.024881,0.091741,0.040161,-0.98024,-0.41144,-0.080894,0.09174,-0.083165,-0.15615,0.0050381,-0.59735,-0.010864,-0.029291,0.032789,0.1035,0.46045,0.0088366,-0.02929,0.033011,-0.10606,-0.078762,-0.99844,-0.1113,-0.33033,-0.09091,-0.05979,0.11685,-0.10431,-1,-0.090909,0.064871,0.080894,-0.008837,-0.083679,0.08524,-0.1357,-0.19908,1,-0.077075,-0.11163,-0.34301,0.090909,1,0.074122,0.09174,-0.02929,-0.090909
0.98166,-0.39727,-0.34344,0.98167,1,-0.34345,0.11317,0.10002,-0.34434,0.099999,0.11111,0.09832,-0.34425,0.098297,0.99988,0.18911,0.21592,-0.22543,0.21594,0.12954,0.12733,0.11835,0.084087,0.048343,0.084056,-0.081135,-0.079758,-0.94089,0.96751,0.98882,-0.29957,0.98883,0.11772,0.11572,0.217,0.075903,-0.096215,-0.087919,0.34476,-0.087902,-0.99134,-0.99105,-0.25124,0.21132,-0.10616,0.10403,0.092453,-0.34334,0.092423,0.99778,0.99869,0.11972,-0.074997,0.1088,-0.98841,0.87594,0.88102,-0.2293,0.88101,0.035798,0.035188,-0.27169,0.53874,0.86949,0.035092,0.033086,0.44636,0.38518,-0.076129,0.38521,0.33553,0.33222,0.66638,-0.5477,0.40054,-0.40143,0.32056,0.056802,0.12292,0.1054,-0.31422,0.10537,-0.10666,-0.10485,0.071818,-0.015619,-0.043648,0.10119,-0.098584,0.069055,-0.046161,-0.11777,-0.10391,0.34595,-0.10389,-0.99987,-0.99981,-0.1307,0.081591,-0.12154,0.99126,-0.99789,-0.03907,-0.33528,0.10605
0.61964,-0.56623,-0.25065,0.43636,0.15063,-0.094555,0.46731,0.16099,-0.13154,0.99898,-0.28328,-0.00049216,-0.41755,-0.31093,-0.30713,-0.27237,0.1326,0.48509,-0.122,-0.14263,-0.18992,0.4906,0.29629,-0.95356,0.004345,0.038627,0.51583,-0.23291,-0.46634,-0.15993,0.13197,-0.99902,-1,0.30644,0.14276,-0.038974,0.1897,0.1763,-0.86634,-0.16996,-0.14375,0.62056,-0.14277,0.93163,0.14285,-0.30569,0.041339,0.19523,-0.073645,-0.091094,0.64213,-0.17683,-0.15603,0.091097,-0.15781,0.2726,-0.13274,-0.48528,0.12209,0.14274,0.1895,-1,0.23304,-0.14287,0.14288,0.17618,0.37339,0.02915,0.41435,0.19199,0.18922,-0.61892,-0.06381,-0.49292,-0.18805,-0.75242,0.03688,0.063845,0.46626,0.1599,-0.13195,0.99903,1,-0.3064,-0.14273,0.038962,-1,-0.14282,-0.091072,0.14284,0.18797,0.1897,0.1763,-0.86634,-0.16996,-0.14375,0.62056,-0.14277,0.93163,0.14285,1,-0.15781,0.14288,-0.75242,-0.14282
-0.15639,0.045552,-0.24741,0.15001,-0.98959,0.32115,0.16458,0.25838,0.5032,-0.14088,-1,0.15639,-0.045553,-0.15001,-0.16458,0.14286,0.14194,-0.11999,-0.14839,-0.16576,-0.14286,0.018863,0.88608,-0.17851,-0.87286,0.23266,-0.018867,0.35236,-0.14286,-0.14194,0.11999,0.14839,0.16576,0.14286,-1,-0.35236,-0.22389,-0.19253,0.83671,0.22112,0.25845,0.22389,-0.50775,-0.23841,0.50775,1,-0.15639,0.04555,0.15001,0.16458,-1,0.14286,0.018863,-0.14286,-0.22389,0.14286,0.14193,-0.11999,-0.14839,-0.16576,-0.14286,1,0.35236,-1,-0.50775,0.14286,0.017232,-0.2488,0.91034,0.28975,0.2703,-0.017232,0.22157,-0.10429,-0.22157,0.70033,0.01723,0.22157,0.14286,0.14193,-0.11999,-0.14839,-0.16576,-0.14286,1,0.35236,-1,-0.50775,0.14286,1,0.22157,0.22539,0.14076,-0.17367,-0.22861,-0.25858,-0.22539,0.55221,0.17564,-0.55219,-0.23714,0.22539,0.55219,0.15249,0.55219
-0.088702,-0.063332,0.03469,0.0887,-1,-0.034692,0.16189,0.1053,0.27134,-0.1053,0.14701,-0.089766,-0.13717,0.089767,-0.035384,0.12107,0.13241,0.38785,-0.13241,-0.15612,0.13047,-0.12279,0.24115,0.16881,-0.24115,-0.10357,-0.1384,-0.052069,-0.088702,1,0.034691,-1,0.1053,-0.089767,0.13241,0.24115,0.73963,-0.090922,0.39031,0.090919,0.28228,-0.089779,0.13214,0.19332,-0.090921,-0.35511,0.15094,0.22803,-0.15094,-0.1316,-0.36353,-0.21937,0.15015,0.15094,0.15096,0.10704,0.090045,0.35692,-0.090046,-0.11365,0.088913,0.80229,-0.17789,0.090045,0.090056,-0.1495,0.023137,-0.020768,0.31709,0.020763,0.14754,-0.017116,0.19969,-0.62475,-0.020768,0.19905,0.20414,0.25795,-0.088702,1,0.034691,-1,0.1053,-0.089767,0.13241,0.24115,1,-0.090921,0.15094,0.090045,-0.020768,0.38565,0.10006,-0.85471,-0.10006,-0.20572,0.098803,-0.14543,-0.27531,0.10006,-0.0053465,-0.16613,-0.099108,0.013523,0.10006
-0.37044,-0.37685,0.010195,-0.33722,0.24948,0.53645,-0.021901,-0.74123,0.16822,-0.52727,0.99998,-0.36964,-0.37565,-0.3405,-0.01936,-0.14267,-0.17253,0.57796,0.30403,0.18539,-0.14223,0.35973,-0.26477,0.070159,0.28816,0.015568,0.35886,0.27365,-0.14265,-0.037876,0.55406,0.26496,0.2347,-0.14066,-0.14286,0.31452,-0.14265,-0.037876,0.55406,0.26496,0.2347,-0.14066,-0.14286,0.31452,1,-0.99994,0.37309,0.37677,0.33066,0.025123,-0.99987,0.14506,-0.36013,0.14244,0.14244,-0.14267,-0.17253,0.57796,0.30403,0.18539,-0.14223,1,0.27365,-0.14286,-0.14286,0.14506,0.24508,-0.34132,-0.4927,-0.84531,0.51629,0.24637,-0.35763,-0.2388,-0.31553,-0.31553,-0.24167,-0.35763,-0.14265,-0.037876,0.55406,0.26496,0.2347,-0.14066,-0.14286,0.31452,1,1,0.14244,-0.14286,-0.31553,-0.14265,-0.037876,0.55406,0.26496,0.2347,-0.14066,-0.14286,0.31452,1,1,0.14244,-0.14286,-0.31553,1
-0.11222,-0.19555,0.10638,-0.092997,-0.13033,0.25374,0.090859,0.11602,0.047819,0.090908,-0.97629,0.043216,0.30729,0.0015511,-0.090516,-0.42687,-0.068931,-0.33819,-0.052086,0.05205,0.37016,-0.415,-0.34205,0.21618,-0.46358,-0.1274,0.57379,0.26803,0.092999,0.13034,-0.25375,-1,-0.090912,-0.0015543,0.052087,0.46358,0.091491,0.13336,-0.41815,0.090923,-0.090912,-0.15128,0.052087,-0.16583,-0.090902,-0.61764,-0.042118,-0.32713,-0.044763,0.18565,0.56086,0.91998,0.36465,0.044763,-0.0061459,0.10483,0.11656,0.44127,0.090181,-0.090181,-0.051308,-0.94407,-0.14333,-0.090183,-0.09018,-0.78588,-0.1681,-0.00046659,0.46106,-0.16907,-0.10283,0.27664,-0.24357,0.45324,0.16907,0.20135,-0.24225,0.3285,-0.092997,-0.13033,0.25374,1,0.09091,0.0015522,-0.052087,-0.46358,-1,0.090916,-0.044763,0.090181,-0.16907,-0.091494,-0.13337,0.41815,-0.090909,0.090909,0.15129,-0.052086,0.16582,0.090888,-1,0.0061459,0.090181,-0.20135,-0.090902
0.089584,-0.067734,-0.19468,0.16327,-0.11656,0.7083,0.30992,-0.10328,0.013258,-0.099119,0.79142,0.09935,0.27054,0.11228,0.21551,-0.26154,0.56374,0.20455,0.04152,0.060126,0.010009,0.25787,-0.08642,0.35729,-0.14053,0.331,0.41412,0.030672,0.17539,-0.11166,0.68897,0.99923,-0.094275,0.10782,0.039806,-0.15587,0.34803,0.11231,0.22537,0.11505,0.13397,0.19135,-0.040157,0.80069,0.1103,-0.19321,-0.05815,0.29645,-0.0011039,-0.50851,0.13236,-0.024133,0.30313,-0.034823,0.19996,0.36887,-0.11351,-0.35473,-0.11497,-0.12992,0.049099,-0.88459,-0.084997,-0.11018,0.11096,-0.0029807,0.31091,-0.29916,0.050929,0.03993,0.17916,0.040689,-0.20506,0.67646,0.044591,0.84175,0.0081977,0.076592,0.17106,-0.11329,0.69635,0.9997,-0.095982,0.10971,0.040515,-0.15011,0.99989,0.11212,-0.022324,-0.11194,0.042752,-0.34803,-0.11231,-0.22537,-0.11505,-0.13397,-0.19135,0.040157,-0.80069,-0.1103,-1,-0.19995,-0.11096,-0.84175,-0.11212
0.1855,-0.15138,-0.1892,0.10604,-0.2902,0.13735,0.23396,0.52656,0.58241,0.19306,-1,-0.1855,0.15138,-0.10604,-0.23396,-0.11137,0.13337,-0.18672,0.1059,-0.0086702,0.11137,-0.047065,0.023245,-0.42149,0.0034331,-0.39636,0.047067,-0.35203,-0.0015065,0.30574,-0.12996,-0.97314,-0.1605,0.0015053,-0.060261,0.080991,0.30358,-0.22368,-0.608,-0.099217,-0.43275,-0.30358,-0.18891,0.36525,0.092261,-1,-0.18549,0.15137,-0.10606,-0.23397,1,0.11137,0.047064,0.0015254,-0.30357,0.11111,-0.133,0.18629,-0.10564,0.0088206,-0.11111,-1,0.35118,0.059741,0.1887,-0.11111,0.050653,-0.10615,0.76107,-0.025013,0.38175,-0.050655,0.005874,-0.67486,-0.020021,-0.50911,-0.050656,-0.0058472,-0.96943,-0.2265,0.075489,-0.026107,-0.2954,0.96943,0.096544,-0.001107,-0.092531,-0.31035,0.96943,-0.09586,-0.06885,0.62963,0.33083,-0.83927,-0.0019032,-0.23393,-0.62963,0.10558,0.23798,0.028855,0.57924,-0.62963,-0.10531,-0.54568,-0.55957
-0.082519,-0.066769,0.0074734,-0.063533,-0.080311,-0.40544,-0.11949,-0.10202,0.10697,-0.19208,1,-0.082518,-0.066765,-0.063535,-0.11949,-0.083334,-0.083442,-0.023101,-0.078066,-0.09582,-0.083333,-0.29271,0.44544,0.20996,-0.15276,-0.21303,-0.29271,-0.060357,-0.050597,-0.050547,0.072957,-0.051993,-0.076569,-0.050598,-0.050598,0.24469,0.9989,-0.078372,-0.070861,-0.057815,-0.11422,0.9989,-0.079185,-0.29811,-0.048079,-1,0.082514,0.066759,0.063536,0.11949,-1,0.083332,0.2927,0.050599,-0.9989,-0.083334,-0.083442,-0.023101,-0.078066,-0.09582,-0.083333,1,-0.060357,-0.050598,-0.079185,0.083332,-0.19903,0.20746,-0.44046,0.26629,-0.071501,-0.19904,-0.71832,0.12241,0.14372,-0.19967,0.19904,-0.71832,0.11672,0.11696,-0.14936,0.11309,0.12363,0.11673,0.11672,-0.009787,-0.32426,0.11091,-0.11673,0.11672,-0.26349,-0.099512,-0.091845,0.13092,-0.0085175,-0.11643,-0.099511,-0.091806,0.13989,-0.055743,-0.14553,0.09951,-0.091806,0.026132,0.12859
-0.12454,-0.13546,0.26062,0.99949,-0.12896,-0.14634,0.12525,0.12472,-0.32143,0.12968,-0.5238,0.20403,0.26233,-0.5198,-0.20339,-0.20001,0.95589,0.42332,-0.20103,-0.040542,0.30449,0.50645,-0.22857,-0.69684,0.49941,0.22021,-0.76025,-0.43965,-0.058249,-0.13399,0.17977,-0.062739,0.13436,0.16063,-0.098348,-0.21676,0.1569,0.10795,-0.36193,0.16079,0.99788,-0.25134,-0.068411,0.28318,0.11679,0.36341,0.093851,0.17899,0.36684,-0.051771,0.59909,0.13075,-0.36631,0.10543,-0.075973,-0.070865,0.56456,-0.29409,-0.07173,0.084429,0.49823,0.49019,-0.017053,-0.048675,0.081896,0.46237,-0.55399,0.58995,0.35925,-0.55919,0.029205,0.012632,0.62479,-0.27301,-0.40641,0.011995,-0.47897,0.033465,0.12498,0.1248,-0.18778,0.12941,-0.12511,-0.19477,0.084321,0.24939,-0.99775,-0.10553,-0.080378,0.043621,0.36672,-0.13223,-0.12743,0.36804,-0.13718,-0.99632,0.21629,0.048938,-0.25488,-0.14548,-0.99643,0.065758,-0.092248,0.0037814,0.1357
-0.062522,-0.13734,-0.19263,-0.015281,0.067369,0.015017,-0.079501,-0.06336,0.6925,0.06348,-1,0.062489,0.13737,0.015276,0.079503,-0.087234,0.86983,0.039606,0.09406,-0.10296,0.087187,0.050892,-0.082513,-0.12367,-0.53504,-0.05667,-0.050839,-0.36645,0.062163,0.062515,-0.17196,-0.067307,0.0077804,-0.062334,0.087217,-0.11266,-0.062525,-0.0625,-0.22235,0.067566,-0.086502,0.062506,-0.087196,-0.14681,0.062515,-1,0.062588,0.13734,0.015248,0.079479,1,0.087268,-0.050801,-0.062389,0.062483,-0.053404,0.53801,-0.30009,0.057599,-0.049,0.053396,0.24169,0.16984,0.053413,-0.053392,0.053447,-0.15393,-0.19152,0.33482,0.11497,-0.076795,0.15389,0.2811,-0.65796,0.06969,0.14322,0.15386,-0.5754,0.062305,0.0625,-0.17198,-0.067389,0.0077639,-0.062477,0.087196,-0.11261,1,0.0625,-0.062532,0.0534,0.069658,0.062525,0.0625,0.22235,-0.067566,0.086502,-0.062506,0.087196,0.14681,-0.062515,-1,-0.062483,0.053392,-0.14322,-0.0625
-0.64627,-0.45883,0.88572,0.087378,-0.10036,0.048949,0.39746,-0.09798,0.12512,-0.1005,-0.38277,-0.1,-0.22035,-0.099961,-0.2298,-0.32745,-0.080333,-0.19414,-0.084883,-0.21515,0.9911,0.04146,-0.21518,-0.42204,0.26563,-0.15061,0.020361,-0.019472,-0.085707,0.099332,-0.049269,-0.99998,0.10061,0.099682,0.084821,-0.26599,-0.24793,0.046355,-0.034983,0.29629,0.25965,0.11528,0.074522,0.69422,-0.29852,0.38277,0.1,0.22035,0.099961,0.2298,-1,-0.9911,-0.020361,-0.099682,-0.11528,0.39858,0.10493,0.14361,0.10491,0.09021,0.026723,0.15942,-0.29866,-0.10328,-0.30206,-0.026723,-0.46622,0.27655,0.31921,0.039095,0.077576,0.47466,0.4523,-0.38853,-0.041103,-0.041744,-0.47466,-0.13203,0.083102,-0.10123,0.047821,0.99995,-0.10169,-0.10049,-0.086702,0.26799,-0.99996,0.29937,0.10049,0.09514,0.041056,-0.39984,-0.10209,-0.26944,-0.11802,-0.19138,0.9846,0.97459,0.076752,0.11766,0.18986,-0.9846,0.019542,0.43801,-0.11847
-0.53301,0.24169,-0.40334,-0.13039,0.048516,-0.3278,-0.25001,0.24477,-0.091807,-0.17448,-0.35378,-0.14929,0.58718,-0.21615,0.10245,-0.12114,-0.22173,-0.18473,0.090924,-0.31408,-0.090368,-0.11664,-0.078813,0.74029,-0.086286,0.033965,0.8441,-0.11774,-0.13052,0.048555,-0.32757,1,-0.17411,-0.21594,0.090797,-0.086068,-0.12201,0.066179,-0.25636,0.13208,-0.19366,-0.1114,-0.15206,-0.16825,0.13193,0.79494,-0.50055,0.32779,-0.57237,-0.23978,-0.014458,-0.095571,0.059586,-0.57261,-0.12696,-0.12114,-0.22173,-0.18473,0.090924,-0.31408,-0.090368,1,-0.11774,0.090797,-0.15206,-0.095572,0.31944,-0.44009,0.90918,-0.14591,-0.15969,0.42844,-0.25598,0.60132,-0.14565,-0.14646,0.26675,-0.25598,-0.13081,0.048886,-0.32819,1,-0.17398,-0.21637,0.090883,-0.086525,1,0.13251,-0.5728,0.090883,-0.14641,-0.2224,0.19743,-0.42345,0.10058,0.65094,-0.112,-0.050807,-0.13198,0.10055,-0.023804,-0.11933,-0.050807,-0.48858,0.10106
-0.16844,-0.11463,0.21932,-0.59754,0.098871,-0.57183,-0.13161,-0.11837,0.14205,0.1971,-0.1675,-0.125,0.19571,0.1478,-0.11028,-0.16844,1,0.21932,0.098874,-0.11837,-0.125,0.14306,0.32924,0.17539,-0.0008855,-0.42986,0.14571,0.32924,0.11811,0.13423,-0.16672,-0.17063,-0.99809,0.12654,0.13423,0.41453,-0.18993,-0.125,0.3856,-0.39989,-0.13876,-0.125,-0.125,-0.44099,0.12128,-0.1675,-0.125,0.19571,0.1478,-0.11028,1,-0.125,0.14571,0.12654,-0.125,0.16938,-0.99997,-0.21872,-0.10034,0.1194,0.12607,-0.99997,-0.33304,-0.13533,0.12607,0.12607,-0.22142,0.10796,0.83921,-0.64255,-0.083862,-0.019295,0.10796,-0.093522,0.062779,0.59921,-0.019294,-0.10663,-0.068565,-0.24023,0.14027,0.14435,0.9889,-0.11587,-0.24024,-0.41911,-0.99347,-0.11961,-0.11587,0.24124,-0.084887,-0.18993,-0.125,0.3856,-0.39989,-0.13876,-0.125,-0.125,-0.44099,0.12127,1,-0.125,0.12607,0.59921,-0.1196
-0.92355,0.095614,-0.007159,0.32657,-0.090654,0.14759,0.15851,-0.20106,-0.11083,-0.11557,0.43565,-0.48489,-0.18746,0.15052,0.43162,-0.021041,-0.087144,-0.076849,-0.052282,-0.087517,-0.47741,-0.05127,-0.057652,-0.14744,-0.068228,-0.09696,-0.16596,-0.065232,0.066243,-0.070004,-0.063587,-0.081745,0.96698,0.30807,-0.061715,-0.06036,-0.060688,0.11654,-0.14496,-0.074713,-0.10015,-0.16601,-0.06668,-0.065223,-0.061689,0.11552,-0.35874,-0.29421,-0.54668,0.23198,0.60925,-0.18644,-0.1357,0.045698,-0.15671,-0.036512,-0.057731,-0.05496,-0.03849,-0.061797,-0.53057,0.9813,-0.047294,-0.044745,-0.048344,-0.20351,-0.054059,-0.04499,-0.1721,-0.079488,-0.11331,-0.20841,-0.076038,0.98704,-0.07036,-0.076028,-0.16276,-0.05513,-0.0089419,0.024151,0.016299,0.0095334,0.68313,0.083451,0.006533,0.0063895,0.73071,0.0065381,-0.060652,0.0047365,0.007448,-0.060699,0.11656,-0.14495,-0.074708,-0.10017,-0.16603,-0.066681,-0.065217,-0.061701,1,-0.15673,-0.048345,-0.076022,0.0065315
-0.092408,0.32336,0.20986,0.25911,0.097417,0.47151,-0.09248,1,0.20993,0.09757,-0.4379,-0.026975,-0.19714,-0.71478,-0.027032,0.091935,0.099457,-0.20257,-0.17074,0.099492,0.028104,-0.014822,0.030339,0.24614,0.23757,0.030348,0.036798,0.015722,-0.090924,-0.099997,-0.0035498,-0.47934,-0.10006,-0.01237,0.099464,0.19963,0.055137,0.30155,-0.088495,-0.10744,0.30146,0.0035474,-0.19643,-0.076415,0.057884,0.075238,-0.14492,0.040554,-0.30593,-0.14507,0.57216,0.14672,0.076663,-0.20972,0.094095,0.092427,0.099996,-0.20367,-0.17194,0.10003,0.028325,0.99999,0.016484,0.1,-0.19684,0.14766,-0.11449,-0.14737,-0.40933,0.020245,-0.14735,0.11255,0.13122,0.7465,0.053971,0.050791,0.0064304,0.13184,-0.056628,-0.072192,-0.069238,-0.49134,-0.072283,0.86153,0.071807,-0.012838,-0.32397,0.043701,0.83329,0.072194,0.041453,-0.069656,-0.079595,0.12153,0.11843,-0.0795,-0.0062121,0.31345,0.083091,-0.074761,-0.97057,-0.11594,0.31392,-0.074924,-0.053243
-0.24247,0.5005,-0.64508,-0.30637,0.48286,-0.59732,0.51199,-0.39106,0.51887,-0.3327,0.64963,0.022879,0.21686,0.42201,0.41123,0.22621,0.028514,0.11533,0.62591,0.24253,0.85051,0.64367,-0.38013,0.6236,-0.43303,0.50528,0.32837,0.24557,0.49141,-0.42251,0.33617,-0.15165,0.29219,0.2915,0.19099,0.69326,-0.021231,0.022991,0.13089,-0.018482,-0.71082,-0.18333,-0.11734,0.1316,0.14767,0.25693,0.014141,0.14156,0.60394,0.25946,0.86199,0.99938,0.27419,0.21202,-0.11082,0.76274,0.025055,0.13315,-0.20813,0.30093,0.40896,-0.12437,0.043496,0.10973,-0.18001,-0.10573,0.65777,-0.37256,0.40088,-0.47263,0.37249,0.18864,0.035642,0.9074,0.61619,0.14982,0.062568,0.15588,-0.34132,0.1627,-0.0273,-0.207,-0.043959,-0.32576,-0.086336,0.017201,-0.62105,-0.070789,-0.094815,-0.47274,0.055835,-0.019461,-0.031322,-0.12502,0.022214,0.70524,0.15648,0.11174,-0.14968,-0.17477,-0.99828,0.10425,0.14125,-0.17449,0.094585
-0.086265,0.99939,-0.066997,-0.9996,0.09122,-0.99836,-0.25953,-0.0062769,-0.25112,0.27891,-0.96164,0.092336,-0.95597,0.96604,0.31365,-0.10612,-0.08326,-0.12167,0.094257,-0.08346,-0.15736,0.98726,-0.10947,0.98621,-0.98878,-0.36749,-0.96127,-0.070562,0.38183,-0.18496,0.37108,-0.39123,-0.31811,-0.58819,0.79967,0.44672,-0.10698,-0.10587,-0.096879,0.1148,-0.18212,0.16878,-0.081074,-0.0038783,0.040541,0.86872,-0.1306,0.85878,-0.87495,-0.39509,-0.9572,0.36012,0.89207,0.75534,-0.064098,0.11227,0.087406,0.12753,-0.10003,0.094224,0.15185,-0.99917,0.076061,-0.80097,0.093359,-0.35217,-0.92472,0.06075,-0.92059,0.92786,0.46259,0.91818,-0.026432,-0.9499,-0.4597,-0.13939,-0.90014,0.014317,-0.0073702,-0.5167,-0.0073024,0.014519,-0.069692,0.18064,-0.62459,0.015961,-0.3379,0.243,-0.20561,0.61946,0.089052,0.020455,-0.0088176,0.037538,-0.0079071,0.0061208,0.048675,0.01437,0.037415,0.067381,0.63388,0.0013171,-0.016138,-0.14708,0.0055265
-0.12581,-0.016736,0.051075,0.064499,-0.086529,-0.95136,-0.19607,0.021645,-0.01527,0.041124,-0.03254,-0.024106,0.00099497,-0.021139,-0.32723,-0.26889,-0.1293,0.11251,-0.11478,0.45112,0.25289,0.2012,0.25446,-0.29244,0.42986,0.21321,-0.2029,-0.10444,-0.070677,-0.05078,-0.034987,-0.045824,0.5075,-0.82398,-0.18326,0.043309,0.19352,-0.34555,0.33568,-0.35961,-0.0023842,-0.13526,-0.57863,-0.17362,0.3759,-0.10599,-0.076424,-0.045554,-0.068696,0.53093,-0.66913,-0.13617,-0.026566,0.97243,0.43715,-0.14719,-0.10707,-0.035903,-0.096053,-0.18417,0.20947,0.14688,-0.76427,-0.15248,-0.13706,-0.11369,-0.19606,0.051789,0.90781,-0.90307,0.1463,0.057196,0.37787,-0.37157,-0.011799,0.14916,0.0080232,-0.040957,-0.13539,-0.097823,-0.053514,-0.087766,0.5252,-0.47851,-0.081961,-0.094716,0.89182,0.4743,0.97273,-0.068955,0.027331,0.20226,0.036652,0.13664,-0.12177,-0.20282,0.044603,-0.73753,-0.22443,-0.035993,0.64631,-0.028958,0.21679,-0.10332,-0.020296
-0.99187,-0.99098,0.99929,-0.17796,0.16931,0.14317,0.17299,-0.16635,-0.1404,-0.99923,-0.099924,0.072129,0.071792,0.15408,-0.14889,0.17398,-0.16747,-0.14145,-0.99917,0.99998,-0.14338,0.2448,-0.26912,-0.26159,0.16707,-0.16146,0.84754,-0.15523,-0.14564,0.16835,0.16004,-0.17197,0.16667,-0.87574,0.16039,-0.99432,-0.98667,0.99476,0.99533,0.18971,-0.18718,0.014073,-0.18844,-0.28534,0.18572,0.28871,-0.30756,-0.29883,0.096315,-0.089952,0.8352,-0.083704,0.99531,-0.98617,-0.32676,0.17135,-0.16454,-0.13869,-0.99924,0.99997,-0.15559,0.9999,-0.16913,0.17434,-0.1852,-0.097659,-0.95561,0.9321,0.92531,0.30125,-0.29203,0.33012,-0.29196,-0.054132,-0.039239,0.90867,-0.10302,-0.29172,0.14564,-0.16835,-0.16004,0.17197,-0.16667,0.87574,-0.16039,0.99432,-1,-0.18572,0.98617,-0.17434,0.039239,0.1607,-0.16118,-0.14859,0.16395,-0.16872,-0.58546,-0.16998,-0.14618,0.16869,-0.059461,-0.16966,-0.16713,-0.33473,-0.16869
0.12569,0.39408,0.38633,-0.59874,0.12948,-0.62032,0.5973,-0.13615,0.61752,-0.99998,-0.018755,-0.14314,-0.4086,0.14224,-0.14284,-0.84626,-0.12205,0.028908,0.12355,-0.12229,-0.25983,-0.33509,0.12483,-0.22155,0.29673,-0.29897,0.85,0.094082,-0.083669,-0.17032,-0.19831,0.17946,-0.178,-0.17133,0.073276,-0.2887,-0.59731,0.13615,-0.61752,0.99998,-1,0.14286,0.1223,0.29899,0.17799,0.018755,0.14314,0.4086,-0.14224,0.14284,-1,0.25983,-0.85,0.17133,-0.14286,-0.87037,-0.14386,-0.024192,0.14528,-0.14405,-0.14591,0.99319,0.19877,0.052868,0.14406,0.14591,-0.81444,-0.33741,-0.40723,0.33597,-0.33252,-0.32455,0.79554,-0.18633,0.15229,0.33252,0.32455,0.77761,-0.090664,0.14185,0.1892,-0.14407,0.14285,0.14284,0.12236,0.32759,-0.98054,-0.14284,-0.14284,0.14412,0.0025618,0.59735,-0.13613,0.61747,-0.99998,1,-0.14279,-0.12236,-0.29895,-0.17799,-1,0.14279,-0.14411,-0.33256,0.14284
-0.12254,-0.022305,-0.07778,-0.38823,-0.092698,-0.77008,0.0039145,0.085523,-0.010425,-0.12099,0.040845,0.073545,0.047194,0.067161,0.098686,0.011302,-0.07438,0.16697,0.012392,-0.11393,0.077318,-0.11432,-0.19455,0.25988,-0.084952,-0.1017,0.0060502,0.2122,0.022685,-0.11766,0.2276,-0.066693,-0.097757,0.07747,-0.071975,0.23818,0.0074264,-0.21746,0.00077876,-0.093632,0.91777,-0.17185,-0.081242,-0.06517,-0.084311,0.040845,0.073545,0.047194,0.067161,0.098686,1,0.077318,0.0060502,0.07747,-0.17185,-0.011104,0.073293,-0.16528,-0.012814,0.1132,-0.076774,-0.99998,-0.21041,0.07897,0.080682,-0.076774,0.011407,0.26888,0.71985,-0.82249,0.28681,0.25588,0.12814,0.082108,-0.0028979,0.13518,0.25588,-0.12818,-0.045616,0.08447,-0.25502,0.043995,0.063965,-0.046295,0.041098,-0.25923,-0.94529,0.055999,-0.046295,-0.047727,0.089681,0.075809,-0.40849,0.072534,-0.093614,0.66566,-0.42839,-0.085872,-0.055126,0.059377,0.8717,-0.42839,0.086381,-0.043421,-0.072621
0.076932,-0.45031,0.20366,0.07686,-0.076965,0.31185,0.15553,-0.038503,0.31731,0.97826,0.076838,-0.076925,-0.1552,-0.076924,-0.048822,0.13162,-0.13164,-0.30673,-0.13164,-0.092934,0.78986,0.44744,-0.16983,-0.61052,0.043872,0.064628,-0.072795,0.15974,0.07684,-0.076952,0.31185,1,0.97828,-0.076909,-0.13162,0.043889,0.067664,-0.065937,-0.54142,-0.90927,-0.90354,0.096542,0.25007,0.3068,-0.90928,-0.076862,0.076923,0.15521,0.076922,0.048818,-1,-0.78986,0.072784,0.076907,-0.096544,-0.084193,0.084252,0.16358,0.084252,0.036536,-0.96649,-0.73626,0.15151,0.084234,-0.079007,0.96649,-0.11384,-0.15938,-0.17518,0.32731,0.30432,0.0075731,-0.10711,0.5694,0.32728,-0.09105,-0.0075703,0.037019,0.07915,-0.079137,-0.002365,-0.050003,-0.14168,-0.079138,-0.13543,-0.080165,-0.050186,0.11199,0.079136,0.086676,0.17627,0.11962,-0.093661,0.27043,0.95316,0.96163,-0.11705,-0.035869,0.062087,0.95316,-0.84315,0.11704,0.084763,0.2712,-0.046834
0.99968,0.33922,0.34435,0.074625,0.075669,-0.22835,-0.074563,-0.076946,0.058851,0.082049,0.1604,0.13585,-0.19276,-0.086021,0.085626,0.075237,0.077533,0.018231,-0.076915,0.07642,-0.086034,-0.26238,-0.25145,0.031771,0.22861,-0.23703,-0.43342,-0.11556,-0.074801,-0.075838,0.22766,-1,-0.081849,0.085774,0.076881,-0.22845,0.074746,0.07711,0.28682,-0.076965,0.076211,-0.086429,-0.076881,-0.36086,0.076759,-0.027925,-0.031618,0.25439,0.075428,-0.07551,-0.03975,0.075764,-0.32115,-0.07556,0.07631,-0.074733,-0.077029,-0.018055,0.076958,-0.076462,0.086106,-1,0.11544,-0.076924,0.076924,-0.075778,0.37812,0.39035,0.5359,-0.0076706,-0.31257,-0.3892,0.19034,-0.023839,0.0076785,0.23925,-0.047212,-0.19015,0.062811,0.063519,-0.20096,0.99431,0.071793,-0.073928,-0.070893,0.23129,-0.99452,-0.066636,0.068472,0.070928,-0.012739,0.074819,0.077184,0.28684,-0.07704,0.076287,-0.086512,-0.076956,-0.36113,0.076834,1,0.076384,0.076999,0.23937,-0.066707
0.06347,-0.19625,0.12234,-0.056917,0.061436,0.54234,0.2086,-0.019579,-0.10509,-0.069288,-0.06346,0.062495,-0.20377,-0.062253,-0.11363,-0.063519,0.062359,0.067222,-0.061849,0.046437,-0.062513,-0.012873,0.195,0.53917,0.88135,-0.13661,0.080944,-0.11116,-0.063098,0.062073,-0.090204,-0.067939,0.097767,-0.062076,-0.062087,-0.061643,0.063438,-0.062493,-0.10326,0.061849,0.74247,0.062499,0.062509,0.027757,0.062078,-0.063506,0.062497,-0.20377,-0.062256,-0.11364,1,-0.062509,0.080929,-0.062078,0.0625,-0.06351,0.062494,0.067238,-0.06184,0.046434,-0.062504,1,-0.11113,-0.062078,0.0625,-0.0625,-0.16174,0.27866,0.79872,0.63377,-0.152,0.05185,-0.2063,0.6862,0.019442,-0.22789,0.051847,-0.20626,-0.063491,0.062495,-0.086772,-0.061625,0.097396,-0.062498,-0.062509,-0.056068,0.99998,0.0625,-0.0625,-0.0625,0.023495,-0.063438,0.062494,0.10326,-0.061849,-0.74247,-0.062499,-0.062509,-0.027757,-0.062078,-1,-0.0625,-0.0625,0.22789,-0.0625
-0.091103,0.39105,0.17058,0.14137,-0.44574,-0.27809,-0.016778,-0.18471,-0.16593,0.014064,-0.14847,-0.23294,-0.30306,0.12935,0.96443,-0.14919,0.45301,0.27748,-0.99992,-0.011348,-0.12582,0.19248,-0.23781,0.52493,-0.43165,0.46118,0.36304,0.42904,0.14842,-0.44981,-0.27595,0.99995,0.011082,0.12512,-0.99998,-0.43105,0.13443,-0.079536,-0.10966,-0.11487,0.24175,0.11276,0.1135,0.23166,-0.11271,-0.14847,-0.23294,-0.30306,0.12935,0.96443,1,-0.12582,0.36305,0.12512,0.11276,0.14893,-0.45231,-0.27708,0.99993,0.011251,0.1256,-1,-0.42958,0.99999,-0.11331,0.1256,0.24114,-0.21873,0.88618,-0.15567,0.080711,-0.015687,0.15427,0.68142,-0.15385,-0.14699,-0.015686,-0.1541,-0.15233,0.44352,0.26771,-0.99991,-0.013973,-0.12761,0.99987,0.42683,-0.99991,0.11626,-0.12761,-0.99988,0.14759,0.047073,-0.0098897,-0.45152,-0.041442,0.117,0.039673,0.039932,-0.1006,-0.039572,0.90985,0.039673,-0.039865,-0.53364,0.045914
0.25764,-0.20174,-0.11628,-0.049427,-0.098847,-0.65638,0.11239,-0.10895,0.69147,-0.93051,0.1467,0.017299,-0.53306,0.3011,-0.2901,0.21748,0.075641,-0.070369,-0.067213,0.095216,0.1347,0.10787,-0.2632,-0.51902,0.094841,-0.050947,0.41276,0.18827,-0.042614,-0.1451,-0.14325,0.27193,-0.15197,-0.027396,-0.85912,0.042704,0.27435,-0.12383,-0.034707,0.11098,-0.11858,0.14158,0.10589,0.4267,-0.095479,0.33743,0.25611,-0.067191,0.084161,-0.079165,-0.6331,0.26058,-0.08287,-0.14801,-0.028439,-0.31731,-0.1195,-0.13414,0.10725,-0.13653,-0.087676,-0.87209,0.044485,0.82952,-0.16697,-0.23443,-0.15525,-0.14537,0.65533,-0.25457,0.47526,-0.51902,0.14068,-0.38674,0.026275,-0.27207,0.1669,-0.20151,-0.48074,-0.43707,0.16844,-0.29603,0.12585,-0.017906,-0.11432,0.22087,-0.24302,0.19784,-0.34428,0.17335,-0.41415,-0.18116,0.098684,0.032325,-0.090804,0.092325,-0.10234,-0.084395,-0.31085,0.082259,-0.937,0.051286,0.13307,0.2154,-0.15549
0.48542,-0.22764,-0.24338,0.70924,0.19786,-0.54239,-0.48482,-0.99996,0.24224,-0.1973,0.13272,0.091466,-0.21563,0.21009,-0.090848,0.17911,0.085577,-0.53026,0.31655,-0.091607,-0.090841,-0.042096,-0.22528,0.24216,0.15253,0.22902,-0.25938,-0.43778,-0.033803,0.088338,-0.2845,0.058547,-0.086136,-0.086078,-0.085988,0.5007,0.48482,0.99996,-0.24224,0.1973,-1,0.090848,0.091607,-0.22902,0.086136,-0.13285,-0.091527,0.21551,-0.21013,0.090909,-1,0.090902,0.25927,0.086136,-0.090909,0.17907,0.085403,-0.5302,0.31647,-0.091433,-0.090847,1,-0.43786,-0.086073,0.091433,0.090908,-0.47441,-0.26903,0.068602,-0.10078,0.26489,0.15552,0.018111,-0.10956,0.106,-0.2649,-0.15553,0.018168,-0.035538,0.083817,-0.28444,0.055285,-0.081696,-0.08164,-0.081556,0.48966,0.999,0.081696,0.081696,-0.081629,0.1258,0.48482,0.99996,-0.24224,0.1973,-1,0.090848,0.091607,-0.22902,0.086137,1,-0.090909,0.091433,-0.26489,0.081696
-0.1051,0.04973,0.14639,-0.76496,-0.078466,-0.28972,-0.59995,-0.13958,-0.21899,0.92079,-0.18212,0.67641,0.34704,-0.40515,-0.47145,-0.13958,0.31067,-0.26753,0.11462,0.14972,0.12137,-0.21807,-0.54773,0.31717,-0.077932,-0.022048,0.060676,-0.094621,-0.36629,0.030304,-0.075574,0.53207,0.58029,-0.086985,-0.013148,0.018542,-0.43843,-0.083692,-0.034974,-0.11112,-0.22068,0.56101,0.1104,0.43095,0.013443,0.010314,-0.86281,-0.15345,-0.11505,-0.084328,-0.28528,-0.072409,0.66621,-0.10002,0.53022,0.015511,0.33278,-0.20533,-0.091693,-0.042089,0.20996,0.97868,-0.081746,-0.1243,0.13533,-0.052792,-0.16952,0.44104,-0.092541,0.072282,0.11204,0.271,0.97161,-0.057408,0.034049,0.10954,-0.18831,0.95974,0.26758,-0.089562,0.427,-0.245,-0.15714,0.075714,-0.2242,0.084057,0.5404,0.088032,0.12019,-0.17391,-0.15876,-0.43971,-0.082859,-0.038185,-0.11008,-0.21922,0.56168,0.1098,0.43056,0.012494,0.99997,0.52921,0.1345,0.10898,0.082754
0.81893,0.20346,-0.31363,0.090886,0.12684,-0.15502,0.090757,0.25407,-0.25085,-0.091074,-0.99114,-0.86571,-0.11476,-0.11796,-0.078842,0.36771,0.21627,-0.094743,0.19077,-0.61429,-0.38862,-0.1368,0.19795,-0.48618,-0.045958,0.0069688,0.080654,-0.0067797,-0.090898,-0.12692,0.15479,-1,0.090908,0.11793,-0.19044,0.046151,-0.078372,-0.27819,0.31944,0.078508,0.057746,0.11513,-0.27515,-0.38063,-0.07839,0.80446,0.76968,-0.021445,0.031348,0.34961,-0.83375,0.16355,-0.29555,-0.031288,-0.18758,0.27829,0.40585,-0.04574,0.43466,0.11196,-0.29967,-0.042231,0.10277,-0.43527,-0.052447,0.18415,0.1602,-0.34514,0.95008,-0.20069,-0.16771,-0.057026,-0.15347,-0.46408,0.2006,0.43516,-0.1025,-0.17874,-0.090909,-0.12692,0.15481,-1,0.090926,0.11795,-0.19047,0.04613,1,-0.078401,-0.031302,-0.43522,0.20061,-0.091266,-0.241,0.23181,0.091428,0.091365,0.12407,-0.28879,-0.27333,-0.091296,0.99085,-0.22784,-0.035369,0.36507,-0.091309
0.0799,0.23745,-0.21554,0.9966,0.091043,0.29812,0.093878,-0.070077,-0.12581,0.080685,-0.13117,-0.32714,0.17891,-0.12385,0.064998,-0.079625,-1,0.21532,-0.090797,0.069871,0.3274,0.050537,0.37159,0.7447,0.12016,-0.23985,0.13528,-0.37192,-0.058821,0.47847,0.047164,-0.043524,-0.89948,-0.25261,-0.47824,0.37122,-0.091029,0.30069,0.099818,-0.080458,-0.95302,-0.11328,-0.30045,0.34623,0.96665,-0.058913,0.48501,-0.0028761,-0.043249,0.0055293,0.66771,-0.48477,0.41923,0.14261,0.13162,0.078675,0.99996,-0.21433,0.089946,-0.069491,-0.31926,-0.99996,0.37423,0.47735,0.30031,0.49228,0.1167,-0.11766,0.88032,0.19422,-0.076516,0.1275,0.11745,0.77276,0.024024,0.0066835,0.026531,-0.11664,-0.14351,-0.48278,0.26126,-0.13809,-0.83061,0.071062,0.48289,0.02604,0.53664,0.67568,-0.315,-0.48366,0.14342,0.079087,-0.097396,-0.17035,0.074314,-0.37008,0.090886,0.097197,-0.15809,0.17829,0.26639,0.0079611,-0.096662,-0.14978,0.27797
0.079351,0.11012,-0.15937,-0.051435,0.058399,-0.12044,0.0041012,-0.016419,0.040361,-0.20886,0.12618,-0.083342,0.13999,0.082804,0.22012,0.089349,-0.091991,0.54621,0.052148,-0.033189,-0.093833,0.31758,0.26201,0.11038,-0.36231,0.52169,0.1035,0.13746,-0.076489,0.091451,-0.090518,0.98646,-0.1095,0.090079,0.10277,-0.26695,-0.018179,0.12717,-0.0090317,-0.21714,0.88513,0.10204,0.15329,0.73722,-0.085014,-0.12626,0.083277,-0.13988,-0.082885,-0.22005,-1,0.093855,-0.10343,-0.090149,-0.10198,-0.072861,0.076536,-0.55628,-0.038055,0.082447,0.076515,-0.98128,-0.11949,-0.084109,-0.1001,-0.076537,-0.0088116,-0.063697,0.92698,-0.16267,0.23988,-0.00035257,0.51046,0.23442,-0.091756,0.21398,0.00049278,-0.49823,0.10114,-0.10823,0.21444,-0.85241,-0.17573,-0.14925,-0.13464,0.047801,-0.9109,-0.27065,0.14933,0.10227,0.15641,-0.093217,0.083192,-0.14892,-0.17356,0.8393,0.12464,0.11041,0.60624,-0.048185,0.95847,-0.12461,-0.082843,0.041012,-0.34464
0.19401,-0.67348,-0.27799,-0.054135,-0.091015,-0.30244,-0.30064,0.13485,0.25705,0.13441,0.53156,0.1014,-0.35627,0.17672,-0.2081,0.18046,-0.090938,-0.062039,-0.090847,0.13474,0.12702,-0.75789,-0.11084,0.58198,-0.087422,0.14175,-0.85252,-0.10449,-0.053764,-0.090961,-0.30269,1,0.13418,0.17688,-0.090909,-0.087677,-0.021625,0.012675,0.28378,0.030986,0.21682,0.0042956,0.014878,0.030499,0.030881,0.28424,0.1407,-0.040052,-0.35055,-0.5402,0.368,0.35586,-0.27471,-0.35048,-0.27391,-0.18046,0.090941,0.062038,0.090847,-0.13474,-0.12702,-1,0.10449,0.090909,-0.014878,-0.35586,-0.69472,-0.089499,0.48107,-0.091574,0.13299,-0.88694,-0.090983,0.99028,-0.091806,0.013253,-0.31408,0.090983,0.053851,0.090321,0.30635,-0.99998,-0.13323,-0.1759,0.09027,0.087654,-0.99998,-0.030611,0.35108,-0.090269,0.091204,-0.003963,-0.18075,-0.19682,0.044402,-0.31315,-0.0052775,-0.042715,-0.011995,0.044537,-0.96053,0.23156,0.042714,-0.0078368,-0.044041
0.17987,0.34657,-0.059146,-0.88493,-0.088606,-0.16348,-0.18725,-0.089079,-0.54283,0.038169,0.82494,0.013607,0.38179,-0.77623,-0.088953,-0.091621,-0.1279,0.096854,-0.0096091,-0.097263,-0.25959,0.32036,-0.12248,0.11808,-0.43296,-0.27047,0.52911,-0.25136,-0.04348,-0.092983,0.028358,0.036435,-0.075406,0.057593,-0.095344,0.18576,0.13983,0.10326,0.29911,-0.026465,0.076921,0.56655,-0.20065,0.057338,0.075406,0.093179,-0.15612,-0.20396,-0.17074,-0.18506,-0.32879,0.1866,0.14734,-0.038076,-0.94738,-0.093953,-0.041587,-0.33546,0.032526,-0.028841,-0.42375,-0.29795,0.070091,-0.028273,-0.87512,0.82994,0.1272,-0.20868,0.44188,-0.023571,-0.73851,0.20255,0.29467,0.27228,0.088857,0.21331,-0.10302,-0.35229,-0.017949,-0.075303,0.00069575,0.031048,-0.058833,0.060312,-0.07439,0.16561,0.9836,0.058833,0.0019631,-0.022059,0.044389,-0.13983,-0.10326,-0.29911,0.026465,-0.076923,-0.56655,0.20065,-0.057337,-0.075405,-1,0.94738,0.87512,-0.21331,-0.058833
-0.09299,-0.11126,0.011929,0.49064,-0.030696,0.03674,-0.92043,0.0081699,0.018078,-0.76654,-0.012542,0.023512,-0.44975,-0.098849,0.091388,0.012467,-0.51706,0.35316,0.43854,-0.20224,0.10779,0.1835,-0.14972,-0.24029,0.0077221,-0.16522,0.25978,0.39417,-0.015782,0.062513,0.13224,-0.047906,0.090685,-0.090639,-0.24423,-0.65527,-0.022398,0.33613,-0.13392,-0.41718,0.093385,-0.090611,-0.23163,0.15813,-0.090438,-0.0121,0.023509,-0.44977,-0.098482,0.090909,1,0.1079,0.25987,-0.090685,-0.090661,-0.58399,-0.5788,-0.10093,-0.26857,0.56196,-0.023201,0.37421,0.27324,-0.28716,-0.17649,-0.023474,-0.017665,0.20071,0.77673,-0.13536,0.074878,-0.23842,-0.1342,-0.54687,0.49799,-0.2228,-0.23846,-0.44325,-0.093521,0.038826,-0.14618,-0.046925,0.10964,-0.10958,-0.47452,-0.75549,0.11798,-0.10934,-0.10964,-0.10555,0.10116,0.020121,-0.33619,0.13399,0.41538,-0.090927,0.090859,0.23118,-0.15858,0.090684,-1,0.090907,0.17793,0.22303,0.10963
-0.055646,0.13804,-0.14301,-0.059999,0.087849,0.12684,-0.077336,0.34286,-0.22374,-0.083682,0.6883,0.049008,0.083075,-0.14109,-0.0011491,0.053274,0.23804,-0.040149,0.067004,0.082726,-0.033889,0.12233,0.028576,0.3865,0.079321,0.20313,0.54566,-0.0072312,-0.111,-0.023565,-0.2063,-0.06699,-0.085002,0.48119,0.066659,0.10643,0.069137,0.10399,-0.02939,0.066993,0.08417,0.23732,-0.066649,0.29725,0.066643,0.18374,-0.24046,0.11881,0.21315,0.15085,0.13841,-0.66675,0.39293,-0.2944,0.16285,-0.053301,-0.23804,0.040146,-0.067,-0.082716,0.033865,-1,0.0072367,-0.066674,0.066667,0.66676,-0.13091,-0.36592,-0.51309,-0.14787,-0.074895,-0.11948,-0.23251,-0.62755,0.36304,-0.12204,-0.15984,0.2325,-0.11888,-0.024167,-0.19455,-0.074915,-0.094941,0.46735,0.074544,0.097019,0.99694,0.0057299,-0.29193,-0.07456,0.36473,-0.069137,-0.10399,0.029387,-0.066994,-0.084169,-0.23732,0.066649,-0.29725,-0.066644,-1,-0.16285,-0.066667,0.12204,-0.0057307
0.09585,-0.13815,0.16115,0.099995,-0.096743,-0.85065,0.097586,-0.12797,0.19871,-0.10731,-0.14739,0.1438,0.61289,-0.80318,0.13736,0.10235,-0.098835,0.13646,-0.10235,-0.099894,0.15116,-0.41779,-0.30714,-0.31221,0.15366,-0.18462,-0.019857,0.54932,-0.099997,0.096731,0.85065,-1,0.10731,0.80318,0.10235,-0.15366,-0.249,-0.21925,-0.70408,0.71486,-0.21301,-0.47307,0.33742,0.79109,-0.71486,0.045287,-0.043685,-0.82016,0.90801,-0.046701,-0.47988,-0.046351,0.20971,-0.90801,0.71797,-0.1489,0.1437,0.15115,0.1489,0.15682,-0.21992,-0.65144,-0.75811,-0.14891,-0.43103,0.067436,0.10514,-0.10118,-0.86866,0.9986,-0.11248,-0.79958,-0.10739,0.17997,-0.9986,0.73145,0.9084,0.11272,0.099996,-0.096733,-0.85065,1,-0.10731,-0.80318,-0.10235,0.15366,-1,0.71486,0.90801,0.1489,0.9986,0.082813,-0.11597,0.32517,-0.063526,0.0093229,-0.49513,-0.011198,-0.16094,0.063527,-0.17091,-0.44034,0.18049,-0.07148,-0.063527
0.11407,0.076353,-0.58584,0.12174,0.41282,-0.54652,0.6304,0.14687,0.1784,-0.52459,0.99971,0.11111,0.094965,0.1132,0.63345,0.11407,1,-0.58584,0.41282,0.14687,0.11111,-0.35943,-0.12795,-0.29831,-0.0078403,-0.21784,-0.35939,-0.12795,-0.51787,-0.30539,-0.19761,-0.24582,-0.11028,-0.522,-0.30539,0.81235,0.12852,0.057136,-0.71002,0.29185,0.022589,0.1058,0.057136,0.092998,0.26984,0.99971,0.11111,0.094965,0.1132,0.63345,1,0.11111,-0.35939,-0.522,0.1058,-0.11407,-1,0.58584,-0.41282,-0.14688,-0.11111,-1,0.12795,0.30539,-0.057136,-0.11111,-0.10191,0.099128,-0.28172,0.20093,-0.22758,-0.097345,0.099128,0.84742,0.3803,-0.12358,-0.097345,-0.09913,0.071746,0.8355,-0.73205,0.83508,-0.26123,0.06316,0.8355,-0.054302,-0.27377,0.27673,0.06316,-0.8355,0.1697,-0.2213,0.049736,-0.60761,0.32912,-0.35405,-0.24073,0.049736,-0.10175,0.073072,0.72365,-0.24073,-0.049733,-0.25037,0.31226
0.99445,-0.14868,-0.19675,0.28246,0.26295,0.25863,-0.17049,-0.14718,0.34558,-0.077518,-0.91976,-0.93106,0.27119,-0.035237,0.1093,-0.72569,-0.7899,0.51099,0.080149,0.041207,0.80251,-0.34375,-0.33926,0.084966,0.28176,-0.0056474,0.64086,0.27861,-0.34732,-0.34217,0.066129,0.27597,-0.013721,0.6413,0.27574,0.99965,-0.99805,-0.99888,0.17373,-0.28204,0.16366,0.92401,0.76181,0.33369,0.33683,0.68355,0.68148,0.35119,0.014762,0.12429,-0.57893,-0.49853,-0.098358,-0.10771,-0.68405,0.30562,0.40048,-0.60007,-0.24811,0.11388,-0.46316,-0.87341,-0.13661,-0.13044,-0.35829,0.18678,0.071475,0.095174,-0.38268,0.081648,0.13848,0.055055,-0.15102,0.37549,0.37551,-0.082009,-0.12827,0.20405,0.19005,0.19381,-0.29041,0.7667,-0.41928,0.040345,-0.052026,0.46899,0.47744,-0.20373,-0.19237,-0.020011,0.33872,-0.99805,-0.99888,0.17373,-0.28204,0.16366,0.92401,0.76181,0.33369,0.33683,1,-0.68405,-0.35829,-0.082009,-0.20373
0.93692,-0.91321,-0.87511,0.11111,0.058749,-0.11706,-0.11111,-0.074405,-0.29454,0.11111,-1,-0.93692,0.91321,-0.11107,0.11112,0.12654,0.46502,-0.18629,-0.10919,0.10894,-0.12654,0.99971,0.93826,-0.92158,0.11824,-0.089873,-0.99971,0.13189,0.1102,0.05816,-0.11904,-0.11042,0.11529,-0.1102,-0.1083,0.10679,-0.10754,-0.056828,0.11227,0.10754,-0.10715,0.10754,0.10568,-0.10416,-0.99955,-1,-0.93687,0.91322,-0.1121,0.11099,1,-0.12641,-0.99971,-0.11008,0.10742,-0.10968,-0.44996,0.17009,0.11161,-0.10869,0.10968,-0.99985,-0.115,0.11077,-0.10809,0.10955,-0.99833,-0.93409,0.89102,-0.092954,0.1617,0.99833,-0.12074,-0.99675,-0.12792,0.12567,0.99831,0.10402,-0.097644,-0.051641,0.10482,0.097645,-0.097773,0.097648,0.095952,-0.094023,-0.99396,0.99303,0.097535,-0.098132,0.1164,0.091182,0.048166,-0.087008,-0.091182,0.091181,-0.091186,-0.089602,0.088424,0.9885,-0.99256,-0.091081,0.091656,-0.10985,-0.98059
0.11111,-0.19378,0.20979,-0.044845,-0.99779,-0.22384,-0.10632,-0.9884,-0.32092,0.98637,-1,-0.11111,0.19378,0.044845,0.10632,0.11111,1,0.20979,-0.99779,-0.9884,-0.11111,-0.2801,-0.46089,-0.17442,0.44496,0.42512,0.2801,-0.46089,0.090269,0.98881,0.2172,-0.98788,-0.98108,-0.090269,0.98881,-0.49334,0.11111,-0.11111,-0.097345,0.11877,0.13479,-0.11111,-0.11111,0.28891,-0.25793,-1,-0.11111,0.19378,0.044845,0.10632,1,-0.11111,0.2801,-0.090269,-0.11111,-0.11118,-1,-0.20982,0.99778,0.98841,0.11118,-1,0.46092,-0.98881,0.11115,0.11118,0.081033,0.97844,0.30672,-0.97814,-0.97091,-0.081033,0.97844,-0.49058,0.96248,-0.078402,-0.081033,-0.97843,-0.11093,0.092064,-0.16276,-0.099633,-0.087098,0.11093,0.092064,-0.26013,0.077469,0.13109,0.11093,-0.092082,0.035246,-0.068088,0.068088,-0.22256,-0.072952,-0.072716,0.068088,0.068088,0.57711,0.0040271,0.40801,0.068088,-0.06806,0.10384,-0.061806
-0.89916,-0.21549,0.24835,-0.2263,0.074647,-0.23884,0.3076,-0.42182,-0.9092,0.21332,0.13783,-0.15064,0.32761,0.21743,-0.062613,-0.99924,0.88681,0.22311,0.21181,-0.30369,-0.13694,0.2477,-0.36572,0.69481,-0.097273,-0.37851,0.50214,-0.22735,-0.1348,0.20752,0.11274,-0.17926,0.11728,0.16375,0.14695,0.26695,0.99988,-0.90511,-0.21849,-0.21743,0.31472,0.14286,-0.99881,0.25309,-0.13414,-0.13783,0.15064,-0.32761,-0.21743,0.062613,-1,0.13694,-0.50214,-0.16375,-0.14286,0.70906,-0.484,-0.3282,-0.25122,0.25537,-0.32818,-0.72073,-0.049422,-0.018369,0.70333,0.32818,-0.15289,0.22928,0.93685,-0.16117,-0.97284,0.15662,0.15147,0.54239,-0.15828,-0.158,-0.15662,-0.19009,0.10365,-0.17029,-0.11579,0.23766,-0.1218,-0.14148,-0.11779,-0.28396,-0.99727,0.10306,0.14148,0.0011567,0.15964,0.99988,-0.90511,-0.21849,-0.21743,0.31472,0.14286,-0.99881,0.25309,-0.13414,1,-0.14286,0.70333,-0.158,0.10306
0.29097,-0.24889,0.0058248,-0.13355,0.1214,-0.32336,-0.02262,0.01429,0.08391,-0.071495,-0.69294,-0.7487,0.026508,-0.021688,0.1613,-0.4279,-0.38004,-0.11805,-0.3619,0.26719,0.57246,0.2489,-0.0057821,-1,0.32355,-0.083789,-0.026565,0.11793,-0.57337,-0.77728,-0.11112,0.17217,0.11581,0.91797,0.46433,0.11112,-0.59533,-0.1399,0.11099,-0.28766,-0.12278,0.43695,0.30439,-0.11113,0.11111,0.49666,0.12692,0.15618,-0.37379,0.48529,-0.42111,-0.035719,-0.15616,-0.56162,-0.076959,-0.005651,-0.26872,0.041926,0.4085,0.025936,0.18569,-0.62809,-0.041776,0.34511,-0.16938,-0.29297,0.24892,-0.0057539,-1,0.32355,-0.083854,-0.026614,0.11784,1,0.1111,-0.11116,-0.15621,-0.041707,-0.57337,-0.77728,-0.11112,0.17217,0.11581,0.91797,0.46433,0.11112,1,0.11111,-0.56162,0.34511,0.1111,-0.59533,-0.1399,0.11099,-0.28766,-0.12278,0.43695,0.30439,-0.11113,0.11111,1,-0.076959,-0.16938,-0.11116,0.11111
-0.27203,0.00089431,0.012233,-0.21046,0.99796,0.017455,0.98721,-0.28375,0.1481,-0.2222,0.31993,0.23617,-0.71056,0.25508,0.1745,-0.27509,-0.36893,0.6717,-0.38727,-0.13497,-0.99023,-0.42788,0.92313,0.25984,0.91145,-0.39393,-0.080707,-0.054244,-0.21636,0.99824,0.025043,0.99987,-0.22764,0.25397,-0.38627,0.91377,-0.62826,0.021112,-0.68292,-0.021744,-0.69831,0.055972,-0.046193,0.010478,-0.027291,0.30468,0.16916,-0.72486,0.18579,0.15678,0.99655,-0.97704,-0.14219,0.18519,0.07532,-0.4445,0.32336,0.69442,0.30505,-0.3092,-0.84277,0.75973,0.58714,0.30588,-0.045,-0.87768,0.12863,-0.19307,0.97533,-0.18271,0.27456,-0.72135,0.71099,0.05852,-0.17597,-0.71337,-0.72467,0.59315,-0.213,0.99811,0.01747,0.99992,-0.22542,0.26041,-0.3924,0.9108,0.99996,-0.024246,0.19159,0.29965,-0.18313,0.35151,0.050258,0.77961,0.075779,0.43037,-0.13389,0.1118,0.11271,0.085687,-0.94483,-0.14504,0.15204,0.77052,0.08089
-0.25994,0.19466,-0.13909,0.16922,0.22801,0.83656,0.99943,-0.25968,0.17976,0.14637,0.14643,0.1331,0.64303,0.59719,0.14545,-0.11022,-0.10907,0.0091572,0.21618,-0.13326,0.11213,-0.26473,-0.070953,-0.68687,-0.55249,-0.25668,-0.73143,-0.13373,-0.12413,0.017441,-0.24385,-0.021807,-0.13483,-0.72736,-0.033298,0.75623,-0.58131,0.058797,-0.59255,-0.45322,-0.5757,-0.627,-0.059697,0.93294,0.70768,0.14644,0.1331,0.64303,0.59719,0.14545,1,0.11213,-0.73143,-0.72736,-0.627,-0.19184,-0.18871,0.28295,0.2979,-0.19541,0.19344,0.058404,0.38016,0.36991,0.46233,0.19344,-0.19884,-0.22923,-0.80044,-0.98034,-0.17408,-0.44357,-0.1993,0.46034,-0.13714,0.38503,-0.44357,-0.28938,0.16002,0.21805,0.79053,0.97267,0.13409,0.40141,0.22049,-0.44744,0.16654,-0.36268,0.40141,0.27226,-0.99728,-0.26843,-0.45088,-0.45879,-0.67354,-0.24972,-0.075744,-0.066468,0.20263,-0.35444,0.20109,-0.075745,-0.11754,0.78044,-0.77117
-0.032749,0.016229,0.20053,-0.086375,-0.13107,0.19146,-0.39226,-0.60969,-0.028177,0.25878,-0.068146,-0.098895,0.17064,-0.19025,0.57378,0.035441,-0.71787,-0.18946,0.19548,0.5863,0.22391,-0.4,0.099069,-0.43351,-0.0061166,-0.10579,0.065237,-0.2753,-0.25387,-0.14966,0.20729,0.90738,0.2028,-0.25785,0.22325,0.094772,-0.48558,0.33284,-0.1053,-0.063635,-0.066229,0.34668,-0.35807,0.88858,0.040465,-0.32058,0.11472,-0.36634,-0.68267,0.0705,0.42646,0.16965,0.32787,-0.57534,0.43307,-0.013528,-0.11158,0.042259,-0.13069,-0.14404,-0.20809,-0.61173,0.2785,-0.14932,0.13105,-0.37303,-0.043716,0.16446,0.97178,0.1198,-0.0209,0.091444,-0.28306,-0.43873,0.12184,-0.14827,-0.39298,0.21717,0.05217,0.11153,-0.11494,0.13097,0.16981,0.095714,-0.16622,-0.085528,-0.266,-0.090874,-0.082261,0.11108,-0.030311,-0.35985,-0.5391,0.27765,0.10488,0.90352,0.64767,0.36626,-0.14687,0.05336,-0.019391,0.038183,0.089453,0.31986,0.16239
-0.574,0.16661,-0.051594,-0.13779,-0.10148,-0.73772,-0.039554,0.17426,-0.23346,-0.10426,0.25338,-0.25063,0.08184,0.21452,-0.18796,-0.028222,0.21981,-0.47153,0.20166,0.11378,-0.34723,0.18141,-0.53519,-0.18922,0.28889,-0.41993,0.013573,-0.15276,-0.52066,0.021833,-0.17765,0.080959,0.0645,0.036142,-0.13177,-0.012233,-0.53643,0.068974,-0.17222,0.066821,0.11399,0.034829,-0.1,-0.11216,0.99466,-0.082201,0.099937,-0.051732,-0.23732,-0.06193,-0.70143,-0.060239,0.41699,0.15221,0.097479,-0.028222,0.21981,-0.47153,0.20166,0.11378,-0.34723,1,-0.15276,-0.13177,-0.1,-0.060239,-0.12782,0.19337,-0.040771,-0.22197,0.03103,0.085351,-0.19302,-0.20592,-0.23068,-0.21757,-0.00016939,-0.19302,-0.020227,0.14604,-0.075422,0.024452,0.024811,-0.6883,0.40919,0.11087,-0.65808,-0.65937,0.27247,0.40919,0.041924,0.53643,-0.068974,0.17222,-0.066821,-0.11399,-0.034826,0.1,0.11215,-0.99466,-1,-0.097482,0.1,0.21757,0.65937
-0.46563,-0.092534,-0.048103,0.11611,-0.14388,0.47632,0.14657,-0.076985,-0.10009,-0.10316,0.4712,-0.98844,0.00049452,0.093102,0.061604,-0.1923,0.076923,0.087789,0.083655,0.076971,-0.057834,0.095822,0.049915,-0.97446,-0.45373,0.069509,-0.0012262,-0.059346,-0.3152,0.077147,0.068976,0.1492,0.077218,-0.21543,-0.077155,-0.05243,-0.16638,0.095047,0.10493,0.14611,-0.96681,-0.078561,-0.11751,-0.10715,-0.095342,0.43177,-0.49428,0.2764,0.38304,0.13852,0.47088,-0.12369,-0.30697,-0.14942,-0.16717,0.1923,-0.076923,-0.087789,-0.083656,-0.076971,0.057834,-1,0.059346,0.077155,0.1175,0.12369,-0.065515,0.2097,-0.71948,-0.85299,0.08705,-0.14872,-0.11918,0.72746,-0.17468,-0.13022,-0.25668,0.11918,-0.3165,0.078554,0.068745,0.14865,0.076891,-0.21677,-0.076828,-0.052172,1,-0.094938,-0.1501,0.076828,-0.17389,0.087698,-0.076945,-0.02872,-0.17323,-0.076738,0.070817,0.076937,0.14812,0.077177,-0.17914,0.13266,-0.076936,0.17253,0.07685
0.14109,-0.20347,-0.11219,0.23215,-0.39722,-0.55657,-0.26149,0.14291,0.046972,-0.12393,0.90378,0.12226,0.19013,0.050307,-0.12613,-0.26724,0.14876,0.051934,-0.11203,0.9992,-0.13135,-0.011594,-0.10516,0.074068,-0.27785,-0.20817,-0.030347,-0.22024,-0.053326,-0.0051267,-0.1258,-0.092604,0.0051265,0.0053381,-0.025307,-0.0054168,0.15055,-0.12245,-0.075147,0.080243,0.12555,0.12579,0.12825,0.21297,-0.0050961,-0.90344,-0.1245,-0.19006,-0.050938,0.12428,-0.99996,0.12941,0.038588,-0.0055696,-0.12414,0.25829,-0.13992,-0.044305,0.12492,-0.99993,0.12348,-0.99868,0.20845,-0.01462,-0.12609,-0.12163,-0.10987,-0.053031,0.97986,-0.51664,-0.017575,0.26548,-0.0089995,0.16662,-0.23308,-0.043144,-0.26459,0.021666,0.22282,-0.17281,-0.10483,-0.33235,0.17698,0.17739,0.14207,0.26017,0.38626,-0.17622,-0.17524,-0.18647,-0.18117,0.15055,-0.12245,-0.075147,0.080243,0.12555,0.12579,0.12825,0.21297,-0.0050961,1,-0.12414,-0.12609,-0.043144,-0.17622
-0.16044,-0.6445,-0.29002,-0.098089,0.12109,0.37361,0.75483,-0.11462,-0.22682,-0.006267,-0.052857,-0.067623,-0.078521,0.088641,-0.254,0.090524,0.15022,0.069354,-0.060378,0.32889,0.14944,-0.47043,0.20574,0.57491,0.28395,-0.19203,0.055594,0.31925,0.020936,0.17172,-0.12665,0.41268,-0.21069,0.090589,-0.76678,-0.40755,0.001692,0.2684,-0.40162,-0.19593,-0.54033,0.1049,-0.14163,0.14376,0.0099787,0.022037,0.12993,0.091304,-0.05797,0.24924,-0.99704,-0.13791,-0.014415,-0.080509,-0.11325,-0.090535,-0.15024,-0.069315,0.060392,-0.3289,-0.14945,-1,-0.31922,0.76678,0.14164,0.13791,-0.81024,0.11675,0.68455,0.46173,-0.69723,-0.057073,-0.11454,0.31108,0.22164,0.019946,0.077463,0.11456,-0.09149,-0.28192,0.029106,-0.86426,0.0082216,0.0287,0.378,-0.04508,-0.65423,-0.029545,-0.057945,-0.378,-0.23672,-0.0071594,-0.20876,0.3971,0.18032,0.5756,-0.16497,0.22965,-0.077082,-0.10822,-0.99055,0.17749,-0.22966,-0.035853,0.053316
0.12838,0.50116,0.46523,-0.1226,0.20212,-0.11492,-1,-0.12839,-0.50116,0.12257,1,0.12838,0.50116,-0.1226,-1,0.10158,-0.20268,0.017744,-0.56757,-0.10158,0.10158,0.27103,0.17991,0.16636,0.45909,-0.27104,0.27103,-0.30851,0.89112,0.22819,0.48833,0.30926,-0.89113,0.89112,-0.053009,0.51887,0.10771,0.91558,0.39952,0.090961,-0.10772,0.10771,-0.029632,0.24359,0.18577,-1,-0.12838,-0.50116,0.1226,1,-1,-0.10158,-0.27103,-0.89112,-0.10771,0.093628,-0.15358,0.30354,0.18019,-0.093632,0.093629,-0.15626,0.27995,0.19109,-0.10319,-0.093629,-0.59451,-0.19052,-0.81614,0.26016,0.59451,-0.59451,-0.19546,0.15191,-0.48884,-0.1034,0.59451,-0.082859,-0.8966,-0.070246,-0.39879,0.021365,0.89661,-0.8966,-0.39398,-0.27301,-0.88533,-0.10918,0.8966,-0.060515,0.52001,-0.14115,-0.26315,-0.20807,0.46028,0.14115,-0.14115,-0.87356,0.15486,-0.041783,-0.46054,0.14115,0.18813,0.22287,0.40156
0.43588,0.14821,0.21147,0.16776,0.12697,0.037383,-0.43356,-0.10948,0.61242,0.12785,-0.037605,-0.045969,-0.0023218,-0.88577,-0.043201,-0.2641,-0.12613,-0.72567,0.12502,-0.13407,-0.044937,0.017776,0.09355,-0.68654,-0.098453,-0.35509,0.031383,0.8347,0.16778,0.12707,0.037898,1,0.12816,-0.88582,0.12455,-0.09885,0.21787,0.1263,-0.049225,-0.12498,0.13266,0.044927,0.12497,0.30767,-0.12506,-0.27122,-0.18466,-0.067586,-0.83755,-0.1895,0.4883,-0.18213,0.14819,-0.8375,0.18209,-0.2641,-0.12613,-0.72567,0.12502,-0.13407,-0.044937,1,0.8347,0.12455,0.12497,-0.18213,0.24345,0.12435,0.76095,-0.11849,0.20072,0.041281,-0.99723,-0.84041,-0.11801,-0.085202,0.17417,-0.99723,-0.16978,-0.12735,-0.035185,-0.99999,-0.12358,0.88625,-0.12454,0.09796,-0.99999,0.12599,0.83697,-0.12454,0.11832,-0.21775,-0.12632,0.049239,0.12501,-0.13268,-0.044937,-0.125,-0.30766,0.12509,-1,-0.18213,-0.125,0.085228,-0.12602
-0.16669,0.10443,-0.51949,-0.16653,-0.16672,-0.35384,0.46159,-0.35828,0.14335,-0.10594,1,-0.16669,0.10443,-0.16653,0.46159,0.14092,0.11391,0.17893,0.32717,0.30841,0.14092,0.45467,-0.28502,0.31636,-0.33422,0.95866,0.45467,0.33967,0.16667,0.16666,0.35388,-1,0.10584,0.16667,-0.32736,0.3341,0.61328,-0.30952,0.29348,-0.23143,0.95933,0.61328,0.33772,0.96822,0.23138,1,-0.16669,0.10443,-0.16653,0.46159,1,0.14092,0.45467,0.16667,0.61328,0.0062534,0.0069008,0.77553,-0.30327,0.089767,0.0062534,0.32921,0.27047,0.3033,0.27802,0.0062535,-0.050053,-0.067162,0.1652,0.0029197,0.41796,-0.050053,0.74242,0.4843,-0.0032289,0.34184,-0.050053,0.023486,0.16668,0.1666,0.35392,-1,0.10586,0.16668,-0.32737,0.33413,1,0.2314,0.16668,0.30331,-0.0032252,0.40195,-0.54486,0.2866,0.051404,0.92406,0.40195,0.48298,0.8832,-0.051545,0.8678,0.40195,0.076896,0.62241,-0.051513
-0.19939,-0.058302,-0.074343,-0.65872,-0.090797,-0.032796,0.011234,-0.090888,-0.19454,-0.090906,-0.49186,-0.1659,-0.09849,-0.065664,0.18125,-0.10216,0.090943,-0.52695,0.090905,0.09091,0.41351,0.060211,0.32296,-0.014389,-0.16289,-0.13564,-0.098245,-0.18518,-0.36473,-0.1339,-0.13862,0.59519,-0.13398,-0.035453,0.13398,-0.25522,-0.36375,-0.079458,0.053496,-0.079475,-0.079494,0.54282,0.079478,-0.25333,-0.11713,-0.072093,-0.30857,0.18208,0.42563,-0.47816,-0.45619,-0.18578,-0.35525,0.36717,0.048595,-0.10216,0.090941,-0.52695,0.090906,0.09091,0.41351,1,-0.18518,0.13398,0.079478,-0.18578,-0.095211,0.14823,-0.098232,0.19585,0.31385,0.11282,0.56672,-0.38413,0.13227,0.058256,-0.07268,0.56672,0.0020211,-0.020244,0.16881,-0.018947,-0.020283,-0.042019,0.020283,-0.42912,0.65838,-0.017733,0.22678,0.020283,0.36465,0.37122,0.090095,-0.054592,0.090114,0.09012,-0.54548,-0.090118,0.26847,0.13281,-0.99484,-0.095354,-0.090118,-0.045866,0.020106
-0.25334,0.22484,0.15173,0.61036,-0.074824,0.16678,0.053416,-0.031538,0.0664,-0.42643,0.22278,0.063571,-0.34233,-0.014962,0.12573,0.20461,0.064267,-0.18942,-0.04517,0.088952,0.97438,-0.19208,-0.041482,-0.75163,-0.11324,0.026892,0.27316,0.083333,-0.25764,-0.048413,-0.11677,-0.16271,0.13831,-0.74222,-0.85252,0.35945,0.13432,-0.018011,-0.13472,0.28713,0.49675,0.018777,-0.1164,0.38373,0.25659,-0.16717,-0.088029,0.2768,0.061508,-0.17441,-0.98408,-0.96575,-0.28338,0.73552,-0.07869,-0.20461,-0.064267,0.18942,0.04517,-0.088952,-0.97438,-1,-0.083333,0.85252,0.1164,0.96575,0.19208,0.041482,0.75163,0.11324,-0.026892,-0.27316,-0.083333,-1,-0.35945,-0.38373,0.28338,0.083333,0.046604,0.015697,-0.24301,0.72253,-0.75782,-0.046276,-0.090545,0.1615,-0.10031,0.12187,0.085112,0.090545,-0.1615,0.47455,-0.2551,-0.31859,0.32016,0.21509,0.36574,0.21252,0.63941,0.095989,0.63892,-0.37221,-0.21252,-0.63941,0.1448
1,0.047065,0.047206,-0.089866,-0.090176,0.0067686,0.055996,0.056038,-0.20642,0.05606,0.099874,0.099823,-0.45713,0.13724,0.70403,0.11883,0.1188,-0.49305,0.071867,0.58416,0.98254,0.04499,0.045085,0.13735,-0.0028342,0.20895,-0.21755,-0.23865,0.097014,0.097098,0.0026851,0.14591,0.286,-0.096885,-0.12084,0.92508,0.10091,0.10099,-0.0050771,0.13663,0.27228,-0.09766,-0.11713,0.92461,0.99967,-0.14178,-0.14188,0.36304,0.32331,-0.76286,-0.86654,-0.84165,0.17318,0.1375,0.13888,-0.1,-0.099952,0.45706,-0.13622,-0.70437,-1,-0.98252,0.21751,0.09701,0.097787,0.86711,0.1452,0.14539,0.96749,-0.13049,-0.21424,-0.47507,-0.49694,0.23125,0.047673,0.04308,0.32529,0.47488,-0.1,-0.10009,0.0024638,-0.13707,-0.26934,0.099872,0.11883,-0.92489,-0.99964,-0.99995,-0.14178,-0.1,-0.044676,0.10029,0.10038,-0.0028977,0.13705,0.27122,-0.097926,-0.11702,0.92468,0.99966,0.99996,0.13982,0.098054,0.044223,-1
0.16458,0.10083,-0.75328,-0.16673,0.16667,-0.41853,0.1959,-0.063519,0.23277,0.1837,0.15789,-0.15996,0.2438,0.19962,-0.17951,0.16486,1,-0.75395,0.1669,-0.063765,-0.16019,0.24714,-0.30364,-0.20375,0.24688,-0.26881,0.36258,-0.3026,0.16673,-0.16667,0.41853,-1,-0.1837,-0.19962,-0.1669,-0.24688,-0.99999,-0.16671,-0.098893,0.16673,-0.19269,-0.16057,-0.16699,-0.2482,-0.16673,0.16651,-0.16644,0.41815,-1,-0.18345,-0.20072,-0.16668,-0.24724,1,-0.16651,-0.99999,-0.16719,-0.098878,0.16656,-0.19369,-0.15987,-0.16747,-0.24721,-0.16656,1,-0.16634,0.70236,-0.37251,0.62002,-0.22708,0.40622,-0.094748,-0.37261,-0.02838,0.22708,-0.69963,0.22714,-0.69992,0.16672,-0.16668,0.41854,-1,-0.18366,-0.19964,-0.16692,-0.24689,1,-0.16672,1,-0.16655,0.22709,0.99999,0.16667,0.09929,-0.16667,0.19374,0.15997,0.16695,0.24739,0.16667,-1,0.16644,-1,0.70018,0.16666
-0.93741,0.14562,-0.22417,0.078156,-0.050469,0.17773,0.14999,-0.044875,-0.8142,-0.083332,-0.12552,0.038474,0.81702,0.18513,-0.97414,0.24512,-0.23758,0.21752,0.29813,-0.043365,0.2187,0.26229,-0.17743,0.19244,0.39971,0.064898,0.12243,0.8768,0.078505,-0.078572,0.070198,-0.099563,-0.099563,0.18315,0.33995,0.40122,0.05788,-0.023692,-0.27166,-0.67591,0.27373,-0.36511,-0.37373,-0.35184,-0.057598,0.24741,-0.13188,-0.61501,-0.043299,0.87781,-0.77386,0.36273,0.40469,-0.060799,0.17194,0.0060125,0.16695,0.17078,-0.22775,0.013161,-0.10068,-0.53469,-0.34543,-0.20913,0.27854,-0.12554,0.064444,-0.090134,0.79883,-0.24665,-0.82192,0.79534,0.12739,0.04126,0.33254,-0.1322,-0.6697,0.21323,-0.071629,0.076227,-0.20396,0.11151,0.11151,-0.09944,-0.30063,-0.41947,-0.59878,0.012844,0.13348,0.081947,-0.35813,0.031085,-0.010656,0.086291,0.4559,-0.053412,0.042267,-0.13191,-0.085946,-0.28051,0.29042,-0.12547,0.026283,-0.27969,0.23123
-0.66595,0.68296,-0.047141,-0.097232,0.11838,0.050835,-0.004253,0.18938,-0.07661,-0.16383,-0.5279,0.14584,-0.47589,0.17688,-0.23778,0.23874,-0.088698,0.024366,-0.15225,-0.15266,-0.19829,0.6711,-0.94768,0.11835,-0.13523,-0.30378,-0.15035,-0.083693,-0.54055,0.17537,-0.3753,-0.15396,-0.15462,-0.2154,-0.13475,-0.18775,-0.13286,0.16055,0.014908,0.99757,-0.13952,0.19583,-0.12943,-0.18072,-0.16343,0.56541,-0.59706,0.12791,-0.20165,0.27707,-0.7266,-0.16446,0.63267,0.12348,-0.23126,0.039135,0.17905,-0.037631,-0.1455,-0.071523,-0.17195,-0.18005,0.078473,-0.13784,-0.12395,0.25376,0.81677,-0.14761,0.94057,0.012701,0.13027,-0.58266,0.082091,0.2046,-0.52448,-0.014358,0.3217,0.095928,0.23205,-0.085827,0.022021,-0.15528,-0.15585,-0.20253,0.99988,-0.087292,-0.11975,-0.13273,-0.16403,-0.18516,0.076563,0.39406,-0.073035,0.32687,0.56426,0.063807,0.26094,0.059473,0.074285,-0.90213,0.57294,-0.2069,0.056781,0.43582,0.045627
0.068171,-0.48577,0.42717,0.52756,0.74119,0.14082,-0.03632,-0.19371,0.33275,0.00062836,-0.67127,-0.66024,-0.001704,-0.96657,0.14521,0.33948,-0.02013,-0.4519,-0.26018,-0.24893,0.16667,0.68179,0.095268,-0.80099,0.45744,-0.26856,-0.53034,0.28624,-0.43633,0.17994,-0.029975,0.010252,0.31294,0.16667,-0.16667,0.13177,0.43206,0.069353,0.092575,0.30411,0.82695,-0.21811,0.14525,0.12488,0.17477,0.84973,0.51083,-0.30632,0.83879,-0.24223,-0.919,0.17625,0.74248,-0.25006,0.25155,0.33948,-0.020127,-0.4519,-0.26018,-0.24894,0.16667,1,0.28624,-0.16667,0.14525,0.17625,-0.17265,0.3091,0.82036,0.21033,0.061765,-0.16534,-0.3479,-0.63145,-0.53459,-0.058626,-0.041459,-0.3479,0.43633,-0.17994,0.029975,-0.010252,-0.31294,-0.16667,0.16667,-0.13177,-1,-0.17477,0.25006,0.16667,0.53459,-0.47854,-0.6355,0.0041457,-0.83739,0.4834,0.90884,0.25248,-0.44125,0.24967,0.20504,-0.79785,0.25248,-0.21203,-0.24967
0.10817,-0.12141,0.11918,0.13972,-0.12007,-0.99973,0.24337,0.090729,0.017712,-0.01887,0.99971,0.13108,-0.11632,0.13454,0.2432,0.14469,0.99756,0.13464,-0.13409,0.076805,0.16753,-0.19927,0.40935,-0.15249,0.14958,0.072183,-0.1946,0.38997,-0.36564,-0.12257,0.10559,-0.10291,-0.19705,-0.37162,-0.11051,0.67911,-0.17307,0.16373,-0.38596,0.38764,-0.59656,-0.16916,0.17548,0.23417,0.28147,0.99838,0.15767,-0.10184,0.12,0.23747,0.99941,0.19447,-0.19964,-0.38362,-0.16318,-0.1329,-0.99796,-0.13217,0.13184,-0.073351,-0.15578,-0.99992,-0.39318,0.10703,-0.1801,-0.18276,0.99791,0.096715,-0.18003,0.19792,0.23176,0.99733,0.13121,-0.20134,-0.38656,-0.15201,0.99528,-0.11967,0.11809,-0.17085,0.076276,-0.060409,-0.26331,0.11324,-0.11207,0.03159,0.59791,0.29679,0.10967,0.11367,0.094589,-0.0056492,-0.27521,0.3812,-0.38474,0.42042,-0.011737,-0.28946,-0.20741,-0.14823,-0.96302,-0.020262,0.29202,-0.024222,-0.22878
-0.11112,0.28815,0.10887,0.12091,0.12087,0.038347,-0.23121,-0.15892,0.1846,0.086814,-0.10773,-0.11143,0.2203,0.12174,0.022602,-0.089314,-0.48058,0.20028,0.011189,0.24555,0.90463,-0.23871,-0.24587,0.31621,-0.47973,0.56392,0.53764,0.69626,0.11111,0.11112,0.042007,0.99613,0.0714,0.11153,0.0023643,-0.49107,0.11111,0.11112,0.58117,-0.12093,0.23951,0.11153,0.077718,0.22496,-0.11111,0.11111,0.11101,-0.21923,-0.12128,-0.023385,-0.99999,-0.9046,-0.53826,-0.11111,-0.11111,0.088539,0.32421,-0.24774,-0.032407,-0.13609,-0.96771,-0.97739,-0.65286,-0.025998,-0.14811,0.96765,0.17836,0.15479,0.024249,-0.16619,0.0094458,-0.96736,-0.87888,-0.44549,-0.15354,0.05213,0.96761,0.92573,0.11111,0.11112,0.042007,0.99613,0.0714,0.11153,0.0023643,-0.49107,1,-0.11111,-0.11111,-0.025998,-0.15354,0.11111,0.11112,0.58117,-0.12093,0.23951,0.11153,0.077718,0.22496,-0.11111,1,-0.11111,-0.14811,0.05213,-0.11111
0.11159,-0.12826,0.11276,-0.11112,0.11159,-0.10962,-0.99995,-0.11116,0.12932,0.10184,-0.99982,-0.11324,0.1322,0.092306,0.99995,-0.096588,-0.99334,-0.097355,-0.096587,0.095831,0.097984,-0.13782,0.19127,0.96004,0.089942,0.13712,0.1383,-0.16998,-0.11071,0.11265,-0.11069,0.99997,0.10143,0.091888,-0.097506,0.088369,-0.0993,0.099729,-0.09812,0.99389,0.090077,0.080652,-0.08632,0.10711,0.99392,0.99995,0.11041,-0.13458,-0.10559,-0.99995,-0.99988,-0.09587,-0.1431,-0.10517,-0.093318,-0.0052808,-0.76369,-0.0039995,-0.0052786,0.0031097,0.0051875,0.83298,-0.033891,-0.0053286,-0.0047106,-0.0069125,-0.13215,0.098965,0.99925,-0.13267,0.13343,0.1365,-0.08575,0.95074,-0.13372,-0.12119,-0.13849,-0.0052176,-0.11148,0.11197,-0.10935,-0.10811,0.11236,0.11292,-0.096916,-0.20253,-0.1011,-0.10131,-0.11054,-0.0052961,-0.10378,-0.1484,0.14905,-0.14325,-0.14385,0.1496,0.15239,-0.12901,-0.034054,-0.14239,-0.10708,-0.14823,-0.0070488,-0.14655,0.24618
-0.11111,0.16065,-0.22013,-0.0049058,-0.075064,0.18278,0.14244,0.02724,-0.75559,-0.060156,-1,0.11111,-0.16065,0.0049058,-0.14244,0.11111,0.11111,0.31595,-0.34668,-0.065961,-0.11111,0.11113,0.11114,-0.83881,-0.11346,0.98512,-0.11112,-0.11111,0.10687,0.10681,0.31918,0.18012,-0.19755,-0.10687,-0.27431,-0.16641,0.13987,0.13987,-0.074995,-0.039231,-0.18519,-0.13987,-0.13987,-0.13993,-0.15654,1,-0.11111,0.16065,-0.0049058,0.14244,-1,0.11111,0.11112,0.10687,0.13987,-0.11159,-0.11159,-0.3152,0.34787,0.066859,0.11159,-0.99999,0.11159,0.27502,0.14045,-0.11159,-0.11132,-0.11113,0.8389,0.11351,-0.98511,0.11132,0.11111,-1,0.16667,0.13951,-0.11132,-0.11159,-0.053655,0.10113,-0.11501,-0.58935,-0.30301,0.053655,0.24925,-0.206,-0.30506,-0.11742,-0.053655,-0.25278,0.20595,-0.1519,-0.15194,-0.12351,0.082834,0.16178,0.1519,0.1519,0.1519,-0.056412,-0.48827,-0.1519,-0.15244,-0.15179,0.11771
-0.099907,0.060312,-0.22683,-1,0.09995,-0.060202,-0.098265,-0.10707,0.29606,0.098309,-1,0.1,-0.060488,1,0.098355,-0.099999,-0.099927,0.41945,0.10004,-0.099007,0.10009,0.24925,-0.20299,0.066563,-0.24924,0.25036,-0.24944,-0.043133,-0.09699,-0.19232,-0.35274,0.096675,-0.004331,0.09707,-0.0021084,-0.14813,-0.73241,0.14836,-0.171,0.73238,0.14413,0.73289,0.14851,-0.33359,0.079114,0.99995,-0.10103,0.062234,-0.99995,-0.099347,-0.99996,-0.10113,0.25152,-0.097157,-0.7393,-0.1,-0.099922,0.41945,0.10004,-0.099008,0.10009,1,-0.043134,-0.0021093,0.14851,-0.10113,0.017118,0.050948,0.7034,-0.016928,0.20458,-0.017641,0.1396,0.20547,-0.52599,-0.47987,0.024123,0.1396,0.0060551,-0.76896,0.37025,-0.0060581,0.013154,-0.0061501,0.0060273,0.30428,-0.22212,-0.008967,0.0061861,0.0060236,0.11322,1,-0.099908,0.060315,-1,-0.098267,-1,-0.1,0.24925,-0.09699,-0.73242,0.99995,-0.1,0.017126,0.0060553
0.14419,0.23297,-0.24353,0.03769,0.64646,0.12046,-0.11384,-0.97513,0.4065,-0.51937,-0.10818,0.28251,0.27545,0.3765,-0.12544,-0.041091,-0.84871,0.65281,-0.23461,0.92569,-0.072541,0.37625,0.18383,0.30991,0.15184,-0.080332,0.76421,-0.030064,0.36838,0.17811,0.3165,0.13596,-0.072761,0.7763,-0.02882,0.99927,0.17645,0.0014404,0.80403,0.57052,0.15205,0.1123,0.51344,0.10094,0.089051,-0.72388,0.06001,0.14078,0.33668,0.056408,0.72089,0.092009,0.16844,0.18223,0.11737,0.21067,0.0020964,0.80399,0.5627,0.14902,0.095217,0.51051,0.10674,0.094317,0.99928,0.081735,-0.067711,-0.58199,0.52234,-0.67607,0.62293,0.22012,0.50952,0.23004,0.2574,-0.06157,0.16267,-0.066398,0.15856,0.10965,0.043863,0.55739,0.012107,0.1921,0.091239,-0.12864,-0.12587,0.26301,0.21205,0.25843,-0.34148,0.17645,0.0014407,0.80403,0.57052,0.15205,0.1123,0.51344,0.10094,0.089051,1,0.11737,0.99928,-0.061571,0.26301
-0.26494,0.4999,-0.035279,-0.76504,-0.29045,-0.30189,0.9997,-0.26363,0.51168,-0.75857,0.90815,0.15827,0.50483,-0.88432,0.90961,0.20582,-0.056206,0.12993,-0.29535,0.19165,0.14182,0.48121,0.1404,0.06526,-0.3513,0.48348,0.57349,0.28567,0.86603,0.21846,0.45139,-0.88285,0.86716,0.97956,0.24764,0.66702,-0.27566,0.19834,0.36214,0.34668,-0.2737,-0.18169,0.18109,0.038643,-0.20933,0.90512,0.16549,0.50386,-0.88556,0.9066,0.99997,0.14141,0.57404,0.98029,-0.18143,0.20582,-0.056206,0.12993,-0.29535,0.19165,0.14182,1,0.28567,0.24764,0.18109,0.14141,-0.17729,0.10193,0.44025,0.28833,-0.15714,-0.11547,-0.33237,-0.1871,-0.085757,0.017985,-0.11332,-0.33237,-0.33021,-0.79866,-0.18319,0.68221,-0.33087,-0.68819,-0.0017787,-0.50741,-0.70985,-0.09798,-0.69299,-0.0017787,0.10995,-0.25204,0.18247,0.39967,0.31391,-0.25065,-0.16698,0.16662,-0.037912,-0.21148,0.99394,-0.16693,0.16662,0.0064708,-0.088688
-0.35417,0.41352,0.30689,0.037609,0.22084,-0.45092,0.96994,-0.19796,0.39897,0.06362,-0.2353,-0.052829,-0.59269,0.43374,-0.1697,-0.35384,1,0.30699,0.22085,-0.19757,-0.052863,-0.014455,-0.53912,-0.81777,0.13323,0.033068,0.536,-0.539,0.54312,-0.70793,-0.52344,0.32051,0.51781,0.35966,-0.70772,0.78024,-0.010529,-0.21801,0.30707,-0.017601,-0.22781,-0.32469,-0.21831,-0.58681,-0.28473,-0.12694,-0.54279,-0.11137,-0.81682,-0.15505,-0.19731,-0.54279,0.41929,0.11384,-0.19608,0.35383,-1,-0.30686,-0.22083,0.19751,0.052779,-1,0.53879,0.7076,0.21858,0.54268,0.20705,0.2509,0.44187,0.13629,0.21424,0.42415,0.2509,-0.41864,-0.18447,0.21356,-0.50716,-0.25079,-0.092161,0.89898,0.52993,0.30526,-0.012066,-0.20637,0.89897,-0.78551,-0.68235,0.13045,-0.74233,-0.89887,0.42399,-0.0072333,0.19831,-0.28186,-0.063606,0.20715,0.29379,0.1986,0.58128,0.25595,-0.99656,0.2676,-0.19887,-0.23192,-0.16063
0.14806,-0.15115,-0.91648,-0.092814,-0.20895,0.33459,-0.26089,-0.87863,0.899,0.27771,-0.2867,0.11776,0.050532,0.15644,0.30048,0.22612,0.37388,-0.19932,-0.48568,-0.13743,0.45085,0.2058,0.54901,-0.47291,-0.29477,-0.31344,0.58752,0.80373,0.17828,-0.19353,0.1425,-0.16743,-0.037988,-0.093316,-0.091389,0.07618,-0.4948,0.47915,-0.21063,-0.1347,-0.18919,0.50657,0.43857,0.35936,-0.095511,-0.024058,-0.056469,-0.098301,-0.8236,-0.13329,-0.35514,0.13465,-0.177,0.10213,-0.088097,-0.012304,0.2113,-0.10999,-0.056723,0.16471,0.65858,0.55125,0.43321,-0.65469,0.20482,-0.0027303,-0.049694,-0.48452,0.75914,0.64799,0.57262,0.2549,-0.14026,-0.32255,0.10348,0.10516,-0.43594,-0.023142,0.20669,-0.19325,0.097432,-0.16425,-0.11663,-0.29061,-0.20707,-0.033876,0.97677,-0.20183,0.13122,-0.77984,0.020728,-0.12467,0.27078,-0.32152,0.24779,-0.31307,0.061974,-0.4522,0.034527,0.50754,0.16819,-0.39627,-0.52911,-0.071315,0.51727
-0.0019125,0.44368,0.17586,-0.74204,-0.063342,-0.41862,-0.020141,-0.10025,0.1385,0.033139,0.67983,-0.028012,0.14532,-0.7111,0.040808,0.035265,0.13553,-0.18785,0.026123,0.096246,-0.0028834,-0.69071,-0.1,-0.82872,0.70651,-0.099844,-0.2386,0.095981,-0.38136,0.10649,-0.027677,-0.25485,0.10618,0.070613,-0.1017,-0.010274,-0.00189,1,0.17572,-0.063317,-0.10019,-0.028011,0.1361,-0.099931,0.10642,0.23641,-0.22372,-0.41682,-0.45261,-0.038404,0.11434,0.22566,-0.11819,0.15613,-0.22357,0.035533,0.090861,-0.19679,0.02913,0.10129,-0.0016275,0.99899,0.10101,-0.10705,0.091439,0.23696,-0.69071,-0.1,-0.82872,0.70651,-0.099844,-0.2386,0.095981,1,-0.010274,-0.099931,-0.11819,0.10101,0.68754,-0.12064,-0.066693,-0.242,-0.17786,0.31207,0.124,-0.15145,-0.819,-0.12055,0.31084,0.13011,-0.15145,0.0065043,-0.99171,-0.21465,0.083732,0.1136,0.025936,-0.14901,0.11332,-0.12044,-0.99172,0.2315,-0.10479,0.11332,0.13364
-0.21081,-0.25842,-0.17371,-0.10233,-0.12844,-0.13146,-0.18297,-0.23721,0.91856,-0.15873,-0.041305,-0.12495,-0.10899,-0.12565,-0.36155,0.13634,0.25296,-0.035299,0.099514,0.055446,0.10694,0.080567,0.14662,-0.0030244,-0.97057,-0.026404,0.26171,-0.17206,-0.11791,-0.12488,-0.081984,-0.12789,0.1337,-0.12489,0.10686,-0.0032948,0.19828,0.18962,-0.81419,-0.4166,-0.74444,0.219,-0.17697,0.54985,0.098974,0.041337,0.12496,0.10899,0.12558,0.36156,-1,-0.10695,-0.26164,0.12489,-0.21896,-0.14873,-0.10519,0.030954,-0.25776,-0.063994,-0.10522,-0.97922,0.3284,-0.10502,0.26038,0.10524,-0.15448,-0.12228,0.96153,-0.026851,0.88368,-0.11402,0.14291,-0.13268,-0.0048937,-0.88848,0.11401,-0.15502,0.118,0.12499,0.082098,0.12708,-0.13359,0.12501,-0.10695,0.0040885,-1,-0.098643,-0.125,0.10524,0.0049144,0.17401,0.1107,-0.96063,0.10191,-0.9037,0.24219,-0.096399,0.054637,0.10952,0.85499,-0.24219,0.096159,-0.96725,-0.10961
-0.24304,-0.016125,-0.22429,0.59962,-0.15892,-0.2799,-0.14636,-0.0050561,0.019388,0.10077,0.20693,-0.13647,0.095372,0.15379,-0.050054,0.14946,0.12926,-0.13777,0.03057,-0.075098,0.10649,0.27425,0.098446,-0.46302,0.36129,-0.31176,0.45915,0.64728,-0.61968,0.090531,-0.015303,-0.084947,0.050983,-0.09454,0.11264,-0.094044,0.21604,-0.3631,-0.81746,0.44324,-0.014593,-0.068488,0.07868,0.39948,-0.069851,0.23023,-0.16244,0.13606,0.14223,-0.22899,0.97099,0.13468,0.54438,-0.11956,-0.083631,0.14269,-0.033724,0.081971,0.54586,0.064331,-0.022592,-0.76746,-0.32342,-0.023898,-0.016692,-0.028572,0.4526,0.47143,-0.71061,0.59627,-0.17227,-0.034035,0.1599,0.45395,-0.16382,0.45289,-0.047812,0.20869,-0.61968,0.090532,-0.015304,-0.084946,0.050984,-0.094545,0.11264,-0.094046,1,-0.069851,-0.11957,-0.023896,-0.16382,-0.1121,0.9813,-0.23048,-0.12334,-0.0062332,-0.09456,0.11266,0.12956,-0.10002,-0.3407,-0.11959,-0.0239,0.51681,-0.10002
-0.068091,-0.47624,-0.39724,0.21024,0.69575,-0.13848,0.48711,-0.33904,-0.40276,-0.11169,0.16446,-0.35218,-0.06584,-0.10444,-0.11194,0.37901,0.031241,-0.19806,-0.11169,-0.11111,-0.11192,0.0164,0.50453,-0.74921,0.106,-0.12114,0.1575,0.2009,0.12012,0.069105,-0.20653,0.11111,0.11055,0.11137,0.11051,0.47291,-0.48707,0.33911,0.40274,0.11182,-1,0.11195,0.11109,0.12114,-0.11054,0.25917,0.57662,-0.15385,0.95374,-0.14305,0.19934,-0.14303,0.14849,0.14229,0.14317,0.37901,0.031252,-0.19808,-0.1117,-0.11111,-0.11193,1,0.20093,0.11055,0.11109,-0.14304,-0.11878,-0.42081,0.72317,-0.016632,-0.12788,0.19289,-0.27188,-0.87046,-0.4545,0.1279,0.044372,-0.27192,0.16347,-0.036538,-0.26491,0.16497,0.16407,0.16528,0.16407,0.24034,0.52157,-0.16404,0.21126,0.16407,-0.0425,-0.48713,0.33901,0.4028,0.11165,-1,0.11191,0.11112,0.12111,-0.11052,1,0.143,0.11112,0.12791,-0.16405
-0.0093148,0.1267,-0.27261,-0.56399,-0.35386,0.23608,0.12056,0.063943,-0.099125,-0.16063,0.70722,0.10817,-0.30802,-0.39232,-0.24093,0.72416,0.028621,0.68955,-0.22591,0.058258,0.23478,0.42934,0.4968,-0.30585,-0.39971,0.1833,0.67115,0.21787,-0.57526,0.12585,-0.8497,0.076682,-0.027654,-0.034245,-0.96199,0.010149,0.57604,-0.1242,0.85108,-0.07531,0.029022,0.032787,0.96075,-0.016887,-0.99985,-0.42356,-0.056442,0.15882,0.3992,-0.05844,-0.58122,-0.01269,-0.49114,-0.076105,0.072572,0.57707,-0.11425,0.8482,-0.066412,0.037358,0.032822,0.96237,-0.0073384,-0.99854,0.9987,0.066666,0.49245,-0.16031,0.90436,-0.0071014,-0.00048863,-0.03929,0.92739,-0.079657,-0.99334,0.99366,0.10207,0.9918,-0.577,0.121,-0.85284,0.072468,-0.030101,-0.03084,-0.95799,0.028137,0.99884,-0.99953,-0.065526,-0.99823,-0.99346,-0.57604,0.12413,-0.85107,0.075173,-0.02855,-0.033019,-0.96079,0.01668,0.99985,-1,-0.072286,-0.9987,-0.99365,0.99953
-0.10011,0.24944,0.16093,-0.10141,-0.1011,0.24869,0.099865,0.1,-0.0026932,0.10084,-1,0.10002,-0.24964,0.10127,-0.099991,-0.10166,-0.10131,0.2475,-0.095279,0.10132,0.10132,0.47569,0.24102,0.20668,-0.43818,0.076755,-0.47565,0.0046291,0.10034,0.099993,-0.25381,0.094021,-0.099989,-0.099998,-0.99993,-0.013221,-0.099884,-0.10002,0.25436,-0.10126,0.099857,0.10001,-0.10134,0.015289,0.10001,1,-0.10007,0.24964,-0.10132,0.099988,-1,-0.10122,0.47568,0.099898,-0.10001,0.099473,0.099114,-0.25798,0.093095,-0.099123,-0.099134,-0.9998,-0.018847,0.99997,0.099136,0.099033,0.059374,-0.35759,0.55786,-0.07341,-0.22984,-0.059427,0.33467,-0.20228,-0.33424,0.35182,0.059465,-0.33393,-0.10034,-0.099996,0.25382,-0.094001,0.099991,0.1,0.99993,0.013211,-1,-0.10001,-0.0999,-0.99997,0.33424,-0.099867,-0.099999,0.25436,-0.10124,0.1,0.099995,-0.10132,0.0153,0.099994,1,-0.099993,0.09912,0.35178,-0.099996
-0.56816,0.99697,-0.53456,-0.11242,-0.0059549,-0.12592,0.21661,-0.0037224,0.16918,0.17259,-0.11424,-0.59784,-0.12473,-0.12487,-0.37381,0.025922,-0.67717,-0.016708,0.15305,-0.1928,0.40757,-0.30259,-0.097468,-0.316,-0.1327,-0.46144,0.20764,0.59016,-0.11691,0.45467,-0.12575,-0.12532,0.39348,-0.12496,-0.58925,-0.14695,0.11292,-0.11467,0.12493,0.12484,0.11333,0.12505,-0.12822,0.14071,0.12493,0.11429,0.59769,0.12476,0.12484,0.374,-1,-0.40743,-0.20751,0.12493,-0.125,-0.19561,0.4719,-0.16973,-0.034823,-0.039876,0.071134,-0.59679,-0.31205,0.74256,0.026568,-0.07143,0.69552,-0.67483,0.7018,0.0078524,-0.1734,0.038007,0.42079,-0.088365,-0.79292,-0.027871,-0.037962,-0.65214,-0.11697,0.45469,-0.12582,-0.12485,0.39359,-0.12502,-0.58921,-0.14702,1,0.125,0.125,0.74259,-0.79296,0.11292,-0.11467,0.12493,0.12484,0.11333,0.12505,-0.12822,0.14071,0.12493,1,-0.125,0.026568,-0.027871,0.125
-0.2184,0.048103,-0.92553,-0.96445,0.23975,-0.035182,0.99315,-0.16478,-0.018516,-0.97664,-0.98741,0.15736,0.035615,0.95272,-0.99187,0.13964,0.050189,-0.30894,-0.23292,0.13605,-0.13184,0.50586,-0.72281,0.64013,-0.58687,0.49373,-0.41878,-0.068612,-0.18858,-0.15924,0.097809,0.09128,-0.15968,0.12454,0.13953,-0.2301,-0.218,-0.17748,-0.00058676,0.20918,-0.20139,0.19358,0.13813,0.14908,-0.19575,0.99317,-0.18244,-0.011275,-0.97733,0.9992,-0.99424,0.15622,0.49057,-0.14311,-0.1877,-0.14569,-0.023409,0.28433,0.23947,-0.14064,0.13618,-0.99963,0.049386,-0.14519,-0.14369,-0.16129,-0.59426,0.64325,-0.51261,0.70951,-0.59398,0.51462,-0.12088,-0.95884,0.079764,-0.055229,-0.592,0.13847,0.18858,0.15924,-0.097809,-0.09128,0.15968,-0.12454,-0.13953,0.2301,-1,0.19575,0.14311,0.14519,-0.079764,-0.14694,-0.32756,0.17812,0.08588,-0.13576,0.17651,0.18385,0.43429,-0.19674,0.90764,-0.12931,-0.19392,-0.37096,0.19674
-0.033518,0.11903,-0.44871,-0.083532,0.096317,0.071416,-0.063626,-0.97543,0.33441,-0.083529,1,-0.03348,0.11901,-0.083524,-0.063664,0.158,-0.35583,0.39735,0.11567,0.23649,0.15798,-0.1303,-0.38423,0.45416,0.35679,0.33882,-0.13031,0.49825,0.088085,-0.090152,0.19824,0.088586,0.092202,0.088073,-0.11124,-0.51157,-0.083368,0.20282,-0.49009,-0.083529,-0.098607,-0.083358,-0.81556,-0.59017,0.088077,1,-0.03348,0.11901,-0.083524,-0.063664,1,0.15798,-0.13031,0.088073,-0.083358,-0.083361,-0.37258,0.69406,-0.037881,0.21052,-0.083373,0.47602,0.29894,0.1448,-0.37578,-0.083373,0.024569,-0.35079,0.97341,0.051763,0.24382,0.024552,0.33231,0.43343,0.19654,-0.48785,0.024552,0.7216,0.050494,-0.069139,0.20473,0.050598,0.054892,0.050484,-0.082108,-0.51333,0.92809,0.050485,0.050484,0.13077,0.20373,0.083344,-0.2028,0.49007,0.083524,0.098591,0.083333,0.81559,0.59014,-0.088073,-1,0.083333,0.37577,0.48783,-0.050484
-0.48185,-0.79894,-0.10245,0.1513,-0.072886,-0.14286,0.68456,-0.81824,-0.23095,0.55709,0.73016,-0.27615,-0.64697,-0.44787,0.17456,-0.33589,0.61451,0.02666,0.08145,-0.45604,-0.062353,-0.83502,-0.031751,0.99304,-0.17288,-0.30292,-0.62133,0.12762,-0.47449,-0.14737,0.77328,-0.21517,-0.091561,-0.4886,-0.084045,0.73698,0.75099,0.18428,-0.99623,0.12717,0.15859,0.61461,0.016903,-0.98481,-0.76236,-0.53374,0.50643,0.39122,-0.54065,-0.72081,-0.052407,0.50815,0.45757,0.38698,-0.34676,-0.16748,-0.52885,0.59939,-0.074396,0.27802,-0.093999,0.12236,0.59263,0.62679,-0.63152,0.035152,0.79965,0.099308,-0.99998,0.14337,0.23316,0.64677,-0.030748,-0.99337,-0.77474,0.99596,-0.39645,-0.5989,-0.034622,0.13585,-0.23967,0.2029,-0.081059,0.11514,0.1271,-0.19394,-0.80026,0.22742,-0.23689,-0.41834,0.24204,-0.74057,-0.17262,0.99433,-0.13798,-0.16027,-0.62776,-0.027202,0.97848,0.82266,-0.99491,0.36301,0.64078,-0.99432,-0.3207
0.1009,0.10372,-0.1455,-0.14251,-0.37338,-0.013074,-0.10279,0.10244,0.473,-0.14081,-0.58949,-0.14822,-0.26815,0.20724,0.15195,0.12799,0.18169,0.27105,0.040069,0.12988,-0.18793,0.20787,0.097603,-0.27228,-0.16942,0.35621,0.20562,0.071482,-0.0035613,0.003424,0.60212,-0.053137,-0.0039796,0.0051466,0.0044812,-0.28056,-0.083264,0.10099,0.43273,-0.14088,0.99574,0.15538,0.12555,0.43522,-0.022094,0.93205,0.13401,0.1886,-0.18844,-0.13706,-0.84211,0.1699,0.047311,-0.00579,-0.12549,0.09933,-0.11366,0.31706,0.15148,0.10071,-0.14584,0.95633,0.043162,0.0034778,0.096761,0.13184,0.024382,-0.19681,0.97595,-0.020173,0.55795,-0.17969,0.13622,-0.27468,0.61758,0.51634,0.095851,0.19609,0.11431,-0.11333,0.51644,0.15758,0.11658,-0.16796,-0.14378,-0.50545,0.59906,0.069002,0.15022,-0.11159,0.58542,-0.093743,0.11449,0.44255,-0.14702,0.99734,0.15746,0.14351,0.35058,-0.026126,0.99249,-0.13347,0.1109,0.53107,0.10034
0.96598,0.051567,-0.074105,-0.050693,-0.12155,0.10903,0.23967,0.18163,-0.091015,0.18994,0.15358,0.077527,-0.18613,0.08888,-0.13433,-0.1655,-0.10347,0.13701,-0.076986,-0.6877,0.062009,-0.14895,-0.25493,0.37886,0.53791,0.088164,0.19796,0.16707,0.10661,0.12288,-0.10848,-0.22935,0.58511,-0.097894,0.098603,0.026707,-0.2466,-0.21539,-0.024544,0.13165,-0.8559,0.2278,0.61618,0.31146,-0.60289,-0.10334,-0.0085286,-0.057088,-0.11567,0.17679,-0.9541,-0.11703,-0.27655,0.1274,-0.21553,0.16538,0.1034,-0.13688,0.076923,0.68778,-0.062764,-1,-0.1672,-0.098523,-0.61631,0.11776,0.0025929,-0.11661,0.96514,0.13044,-0.0713,-0.1851,0.11445,0.37487,-0.10434,-0.014102,-0.02675,-0.11433,0.09371,0.088584,-0.077707,0.075832,0.65825,-0.073023,0.077465,0.19504,0.95314,-0.57601,0.094921,-0.077401,-0.066707,0.18628,0.069169,0.43508,0.15195,0.83865,-0.15638,-0.53584,0.25325,0.50458,-0.81167,0.047966,0.53592,0.41137,0.56371
-0.098292,0.24905,0.41883,0.24575,-0.76282,-0.44065,-0.8914,0.31771,-0.05454,-0.60666,-0.99323,0.19232,-0.23276,-0.29393,0.90489,0.1446,0.16839,0.11116,-0.2247,-0.052658,-0.12203,0.28046,-0.057341,0.027781,0.36431,-0.36881,-0.24199,0.17519,0.42749,-0.36997,0.28255,-0.1203,-0.24528,-0.49498,0.22581,-0.14865,0.53584,-0.088902,0.14711,0.39158,-0.58136,-0.50305,0.15938,0.95747,0.0084435,0.99419,-0.19217,0.22054,0.29267,-0.90226,-0.99957,0.13941,0.25421,0.49329,0.51254,0.088794,0.10292,0.19305,-0.16661,-0.032795,-0.073272,0.96558,0.32794,0.25266,0.28826,0.089554,0.29483,0.20347,0.80784,-0.17538,-0.15945,-0.28277,0.22525,-0.10162,0.1682,0.032156,0.27534,0.24673,-0.15135,-0.019114,0.10932,-0.10483,0.15317,0.12448,0.13751,-0.62046,0.14969,-0.59538,-0.13038,0.075135,0.47245,-0.91117,0.19638,-0.45962,-0.35104,0.8983,0.92737,-0.075292,-0.29554,-0.45502,-0.54647,-0.92024,-0.094729,-0.47972,0.06194
-0.99797,0.0048093,0.0055891,0.074658,-0.074189,-0.46742,-0.070222,0.048342,-0.2768,-0.19292,0.91888,-0.89872,0.23021,0.056582,-0.31015,-0.21884,0.17975,-0.042728,-0.018669,-0.41493,-0.26904,0.46159,-0.43238,0.64739,0.0048532,-0.44831,0.74752,-0.2465,0.17836,-0.17954,-0.041888,0.067376,-0.26532,0.22642,0.125,0.26261,0.38578,-0.3547,0.61663,0.076185,-0.46397,0.69208,-0.24517,0.99276,0.25677,0.71029,-0.68949,0.59919,-0.1498,-0.21603,0.87547,-0.36216,0.91324,0.2336,0.86351,-0.21884,0.17975,-0.042728,-0.018669,-0.41493,-0.26904,1,-0.2465,0.125,-0.24517,-0.36216,0.010225,-0.0050891,0.70089,-0.95229,0.070711,0.094348,-0.056418,0.23971,-0.082236,0.16716,0.37006,-0.056418,0.17836,-0.17954,-0.041888,0.067376,-0.26532,0.22642,0.125,0.26261,1,0.25677,0.2336,0.125,-0.082236,0.41937,-0.41848,-0.20523,0.41239,0.59029,0.29447,-0.71034,0.13041,-0.03275,0.13003,0.30171,-0.71034,-0.34813,-0.03275
-0.35867,-0.040038,0.0097284,0.55327,0.28985,-0.45057,0.88776,0.015312,0.070755,0.73782,0.1132,0.55323,-0.058923,0.19411,0.20317,-0.17117,0.083519,-0.099916,0.017554,-0.14959,-0.10287,-0.044538,0.14754,-0.12232,-0.30791,-0.2288,0.5449,0.025291,-0.16434,0.083333,-0.15313,0.048618,-0.11797,0.05313,-0.083316,0.027793,0.1253,-0.075266,-0.48098,0.19151,0.097597,-0.28824,0.075243,0.13178,0.075244,-0.10051,-0.32532,0.42706,-0.72084,-0.35625,0.011047,-0.32683,0.47118,-0.44672,-0.27441,-0.1711,0.083334,-0.09992,0.017501,-0.14959,-0.10298,1,0.025264,-0.083333,0.075259,-0.32677,-0.040409,-0.058599,-0.39436,0.21676,-0.091778,0.13795,0.20866,-0.21578,0.063091,-0.49679,-0.28378,0.20868,-0.16434,0.083333,-0.15313,0.048618,-0.11797,0.05313,-0.083316,0.027793,1,0.075244,-0.44672,-0.083333,0.063091,-0.11619,0.083334,0.46592,-0.21006,-0.10636,0.34643,-0.083318,-0.05258,-0.083334,-0.99636,0.31654,-0.083334,0.48619,-0.083334
-0.98682,0.72917,-0.71153,-0.11608,0.26294,-0.16772,0.49911,-0.52327,0.69667,-0.17681,-0.10987,0.25169,-0.20572,0.98315,-0.16685,0.22336,-0.24072,0.027707,0.1601,0.14257,0.16031,-0.30556,0.39137,-0.33903,0.76129,-0.077649,0.79141,0.28703,-0.49802,0.52233,-0.70043,0.17867,-0.99994,0.16854,-0.14481,0.07887,-0.50033,0.52447,-0.69667,0.17682,-1,0.16666,-0.14269,0.078683,0.99993,-0.043729,0.19061,-0.11796,0.9888,-0.094696,0.99203,0.14266,0.74445,0.09668,0.094457,0.22336,-0.24072,0.027707,0.1601,0.14257,0.16031,1,0.28703,-0.14481,-0.14269,0.14266,-0.014918,-0.032007,0.019029,-0.18285,0.42754,-0.11042,0.026468,0.42826,-0.42664,-0.42623,-0.15065,0.026468,-0.2784,0.26594,0.17973,-0.1475,-0.21011,-0.1535,0.13103,-0.044675,0.19971,0.21135,-0.1945,0.13103,-0.077289,0.50015,-0.52424,0.69649,-0.17638,1,-0.16621,0.14284,-0.078086,-0.99993,-1,-0.09403,0.14284,0.42652,-0.21138
0.11149,-0.071274,0.31669,0.29793,-0.30026,-0.48882,-0.11095,0.11109,-0.11077,0.074906,0.11096,-0.11109,0.11076,-0.074906,-1,0.11536,-0.10183,-0.083219,0.010574,0.11592,-0.11592,0.98776,0.06745,-0.12164,0.36614,-0.1759,0.1759,0.1487,0.11002,-0.11109,0.044679,-0.16015,0.11111,-0.1111,-0.086838,0.055609,-0.11342,-0.99993,-0.31763,0.3032,-0.11414,0.11414,0.10361,-0.069391,0.11302,-0.11095,0.11109,-0.11076,0.074904,1,-1,0.11592,-0.1759,0.11111,-0.11414,0.15937,-0.1619,-0.46914,0.18883,0.16054,-0.16053,-0.14116,0.13079,0.84024,0.16469,0.16054,-0.31196,0.079838,0.74001,-0.84268,0.026963,-0.026964,0.123,-0.39149,0.10507,-0.081491,0.026965,-0.37158,-0.11002,0.11109,-0.044679,0.16015,-0.11111,0.1111,0.086838,-0.055609,-1,-0.11302,-0.11111,-0.84024,-0.10507,-0.12594,-0.99092,-0.34312,0.31267,-0.12538,0.12538,0.11645,-0.07029,0.12537,0.99129,-0.12538,0.18255,-0.1157,-0.12537
-0.99855,-0.58005,0.56212,0.29216,-0.29851,-0.16269,-0.28744,0.29901,0.012171,-0.9322,0.25171,-0.28462,0.078658,-0.029957,-0.11096,-0.1461,0.15074,-0.4841,0.52472,-0.25659,-0.24455,0.48746,-0.48385,-0.4047,-0.28567,0.49571,-0.096871,-0.0053825,0.077844,-0.073922,0.50862,-0.036386,-0.047087,-0.373,-0.57994,0.057673,0.65355,-0.65944,-0.22498,0.62278,-0.44512,0.10588,0.23968,0.47745,0.14559,-0.11862,0.089558,0.29074,0.021188,-0.22142,0.88154,-0.18109,-0.53408,-0.39211,-0.19913,0.1461,-0.15074,0.4841,-0.52472,0.25659,0.24455,-1,0.0053825,0.57994,-0.23968,0.18109,-0.45149,0.47951,-0.11863,-0.37767,0.37634,-0.71755,0.080188,-0.1064,-0.054028,-0.66871,-0.50933,-0.080188,-0.5647,0.5456,0.10192,-0.36249,0.39084,0.37642,0.25518,-0.20033,-0.49604,-0.4741,0.50396,-0.25518,-0.056658,-0.28586,0.29329,-0.18821,-0.75744,0.73657,-0.31276,-0.13809,0.24767,-0.14513,-0.69336,-0.31425,0.13809,0.75507,0.26186
-0.061643,0.76494,-0.26637,-0.062777,-0.062538,-0.074879,-0.062599,-0.062519,0.19289,-0.062521,-0.062493,-0.062518,-0.036537,-0.062521,-0.062501,0.062332,-0.99994,0.26736,0.063232,0.063214,0.063213,0.015485,-0.023485,-0.0036959,-0.062678,0.085714,0.097189,0.022877,0.062463,0.062224,0.074554,-0.99999,0.062207,0.062206,-0.062914,0.062416,0.062706,0.062517,0.10379,0.062521,0.062501,0.0625,-0.063213,0.047423,-0.062206,-0.062493,-0.062518,-0.036537,-0.06252,-0.062501,1,0.063213,0.097189,0.062206,0.0625,-0.07298,0.11864,-0.12856,-0.071448,-0.07363,-0.07363,-0.12944,0.061964,0.071079,0.07363,-0.073629,-0.17805,0.44494,-0.3781,-0.142,-0.15247,-0.15961,-0.443,-0.30328,0.14123,0.15332,-0.15961,-0.11398,0.062372,0.062133,0.074461,-0.99998,0.062116,0.062116,-0.062823,0.062341,1,-0.062116,0.062115,0.070972,0.14101,-0.062706,-0.062516,-0.10379,-0.06252,-0.062501,-0.0625,0.063213,-0.04742,0.062206,-1,-0.0625,-0.073629,-0.15333,0.062115
-0.13924,0.088495,-0.14288,0.092022,-0.26169,0.020212,0.037086,-0.060905,-0.07243,-0.08337,-0.028191,-0.092663,0.018844,-0.083373,-0.083334,0.48977,-0.073157,-0.097153,-0.083347,-0.083306,-0.083307,-0.05624,-0.027653,0.44145,-0.63809,-0.075693,0.33661,0.0018719,0.22219,0.095067,0.13423,0.082898,0.083334,0.083333,0.083307,-0.11423,0.2222,0.095014,0.13423,0.082906,0.083387,0.083342,0.083316,-0.11427,1,0.028192,0.092663,-0.018844,0.083373,0.083334,-1,0.083307,-0.33661,-0.083333,-0.083342,0.60263,-0.059536,-0.072907,-0.068012,-0.067978,-0.067979,0.9875,0.0074815,0.067979,0.067987,0.067979,0.046838,0.29068,0.86931,-0.11512,-0.12934,0.052257,-0.10789,0.36609,0.28013,0.28013,-0.052257,-0.088952,-0.22219,-0.095067,-0.13423,-0.082897,-0.083334,-0.083333,-0.083307,0.11423,-1,-1,0.083333,-0.067979,-0.28013,0.035754,-0.36749,0.0047952,0.081635,0.081575,0.081587,0.081561,-0.22997,-0.10237,-0.10223,-0.081587,0.066555,0.014701,0.10237
-0.076923,-0.20371,-0.13307,-0.076183,-0.075661,-0.26477,-0.095344,-0.18958,0.48005,0.039073,0.85198,-0.58755,-0.095452,-0.022096,0.022171,-0.064797,-0.0648,0.4257,-0.063944,-0.1209,-0.018559,-0.064092,0.035534,0.54916,-0.17469,0.81108,-0.070672,0.21711,-0.07902,-0.057176,-0.22917,0.99579,0.08895,-0.034105,-0.035323,-0.094602,0.0067449,0.24672,0.40371,-0.38079,0.37195,-0.12408,0.48297,0.83131,-0.30146,0.077273,-1,0.13299,0.075632,0.18954,0.58784,0.064776,-0.035555,0.057146,-0.24671,0.09758,0.097579,0.46335,0.096892,0.062812,0.027951,0.34192,0.21965,0.12659,0.21761,-0.097542,0.22167,0.090562,-0.075857,-0.35406,-0.6141,0.13235,-0.019551,-0.37592,-0.38434,-0.10988,-0.090482,-0.11521,-0.058376,0.41205,0.014023,-0.54027,-0.14348,-0.26376,-0.046893,-0.038236,-0.53112,0.10616,-0.41206,0.041111,0.1302,-0.12457,-0.2929,0.36457,0.39463,0.90356,0.052706,-0.16369,0.63083,0.42826,0.12255,0.29284,0.07776,-0.56413,-0.42205
-0.091283,0.085975,0.098082,-0.090372,-0.09304,0.020401,0.081063,0.14115,0.028267,-0.36737,-1,0.091283,-0.085975,0.090372,-0.081063,0.089287,-0.99868,-0.12177,0.092661,-0.14662,-0.089287,0.30736,-0.57591,-0.33686,0.28841,-0.098627,-0.30736,0.59035,-0.090546,-0.09322,0.020672,1,-0.36685,0.090546,0.092857,0.28824,0.35283,-0.58086,-0.29286,0.27535,-0.11064,-0.35283,0.59486,0.99609,0.27514,0.9995,-0.094457,0.092372,-0.09345,0.080684,-0.9995,0.092444,0.32166,-0.09363,0.3668,0.091082,-0.99941,-0.1084,0.082395,-0.12825,-0.091082,0.99858,0.57153,0.082622,0.57539,0.094001,0.14581,0.024772,0.96445,0.060877,-0.083312,-0.14581,-0.043812,-0.25702,0.061076,-0.19993,0.14859,-0.036567,0.09107,0.093759,-0.021471,-0.99997,0.36502,-0.09107,-0.093444,-0.2876,-0.99999,-0.27436,0.094172,-0.083314,-0.061561,0.34527,-0.26801,0.1861,-0.13303,0.45431,-0.34527,0.27068,0.10115,-0.13213,0.13552,0.34086,0.28452,0.22093,0.12919
0.1279,-0.20135,0.37357,0.54839,0.20422,-0.20254,-0.090103,-0.059601,0.75258,0.16198,-0.99969,-0.12088,0.20036,-0.55031,0.083597,-0.12219,0.13346,-0.30729,-0.3438,-0.59987,0.14363,0.72023,0.25367,0.20918,0.44064,0.3426,-0.72947,-0.59234,-0.12608,0.12718,-0.5118,0.58245,-0.22813,0.12141,-0.12306,-0.089057,0.72281,0.28382,0.20008,0.43485,0.30047,-0.73146,-0.56505,0.99589,-0.084035,-0.99598,-0.11351,0.18863,-0.55234,0.059441,0.99778,0.20072,-0.76519,0.1096,-0.76629,0.12317,-0.12678,0.31009,0.34554,0.60003,-0.14459,-0.99998,0.59458,0.12404,0.56746,-0.20168,0.12807,0.1336,-0.76896,0.15151,-0.87447,-0.1182,0.58921,-0.37126,0.40782,-0.35147,-0.083019,-0.58879,-0.17794,0.18292,-0.48523,0.4464,-0.31296,0.17275,-0.17298,-0.024147,0.89074,-0.0071502,0.15421,0.17439,0.46,0.015785,-0.75522,-0.31432,-0.030762,0.13644,-0.028004,-0.28231,-0.086135,0.036778,-0.15262,-0.043959,0.27745,-0.11586,-0.16951
-0.072709,0.044174,-0.22694,-0.033847,0.085003,0.0071582,0.15651,-0.53823,0.63187,-0.41771,-0.044493,0.22145,0.08485,-0.11044,-0.43189,-0.040425,0.19606,0.16219,-0.090909,0.086084,0.12849,-0.16535,-0.16488,-0.24483,-0.085741,0.28912,-0.82519,-0.085002,0.034907,-0.057112,-0.080883,0.090675,-0.29955,0.11017,0.090688,0.068272,-0.15018,-0.16791,-0.18136,-0.081545,0.34294,-0.84811,-0.058798,0.99674,0.047498,-0.035803,0.17924,0.049521,-0.090905,-0.45264,0.97591,-0.090955,-0.80994,0.090683,-0.83872,0.093653,0.45281,0.17443,0.31498,-0.29994,0.11186,0.18639,-0.34683,-0.065271,-0.32975,0.071326,-0.26908,-0.27169,-0.06372,0.15636,0.14776,-0.15979,-0.28819,0.35418,-0.45604,0.33959,-0.097058,-0.53429,0.34203,0.1431,-0.40909,0.14883,-0.43229,0.1808,0.14882,0.086665,0.24417,0.04224,0.14881,0.10214,0.11376,0.095251,-0.21316,0.30268,-0.084208,0.59735,-0.1885,0.10231,-0.072863,-0.82327,-0.032721,-0.2118,-0.22367,0.43318,-0.36698
0.090899,0.035819,-0.093871,-0.090909,0.0909,-0.40135,0.012198,-0.069771,0.49762,-0.95991,-0.99967,-0.093429,-0.027803,0.093439,-0.015853,-0.090824,-1,0.093866,-0.090917,0.069787,0.093355,-0.19923,0.23866,0.74277,-0.1974,0.2709,0.20445,-0.2387,-0.081975,0.084035,-0.39766,0.999,-0.96305,0.08431,-0.084056,-0.19753,-0.10568,-0.98711,0.056818,-0.10568,0.079127,0.10862,0.98711,-0.27008,-0.097701,-0.079983,0.091986,-0.31313,-0.091996,0.1409,0.054333,-0.092003,-0.18888,-0.08503,-0.10694,-0.97003,-0.33016,-0.011045,0.063986,0.0054656,0.97033,0.33009,0.1306,0.057192,0.34102,0.053364,-0.59188,0.2827,0.13416,0.039886,0.0013066,0.59285,-0.28276,0.20538,0.040474,-0.3389,0.0020425,0.49203,-0.12677,0.085952,-0.091441,-0.23465,0.24509,0.12924,-0.085873,-0.18991,-0.27338,-0.099809,-0.087338,0.099205,0.039174,-0.093101,0.068737,-0.22981,-0.093101,0.059036,0.095691,-0.068755,-0.19851,-0.086074,0.091817,-0.094213,0.071471,-0.35356,-0.087931
-0.088444,0.099258,0.31823,-0.29999,-0.30644,-0.45761,-0.074987,-0.096504,-0.18716,0.26733,-0.090943,-0.10259,-0.24757,0.20158,-0.14393,0.099829,-0.99908,-0.30955,0.29925,0.073648,0.081508,0.55392,0.51293,0.74422,-0.679,-0.20645,-0.22527,-0.50597,0.33196,0.6422,0.21683,-0.59119,-0.035432,-0.47048,-0.63682,0.65959,0.11426,0.10724,0.43719,-0.19677,-0.25409,0.11243,-0.10757,0.3274,0.044982,-0.090913,-0.10259,-0.24756,0.20157,-0.14393,1,0.081513,-0.22525,-0.47047,0.11244,0.07567,-0.99813,-0.2958,0.32671,0.10616,0.080273,0.99774,-0.51213,-0.66138,-0.11565,0.080276,0.31082,0.4781,0.88492,-0.56944,-0.21548,-0.21562,-0.46528,0.85252,0.41265,0.48904,-0.2156,-0.4623,-0.50584,-0.4648,-0.68917,0.49978,-0.12524,0.4911,0.45518,-0.7933,-0.62108,-0.30204,0.49108,0.45674,-0.77565,-0.11136,-0.10469,-0.43601,0.1816,0.17672,-0.11309,0.10703,-0.32253,-0.041462,-0.99644,-0.11309,0.11212,-0.49289,0.31996
0.25165,-0.30802,-0.94531,-0.0873,0.043299,-0.26485,0.55409,-0.026818,-0.076387,-0.20595,-0.50378,-0.13247,0.1454,0.011689,-0.17763,-0.12298,0.10241,-0.15984,0.034817,-0.40657,0.11162,0.082489,-0.75378,0.54351,0.42892,0.16553,-0.19196,-0.01366,-0.052177,-0.83782,0.89418,-0.36487,0.1503,-0.14371,-0.15148,0.55283,0.31208,-0.6631,0.5157,0.027806,0.4567,-0.41406,-0.056015,0.85782,0.71775,0.3936,0.11068,-0.22838,-0.07208,0.69377,-0.086334,-0.19336,0.042238,-0.21713,0.12188,-0.165,0.10545,-0.098797,-0.15851,-0.37626,0.11665,0.96827,-0.13471,-0.051683,-0.089493,-0.2109,-0.13427,0.37001,-0.32447,0.5496,-0.53857,-0.027135,-0.097099,-0.13543,-0.47727,-0.45089,-0.16947,-0.17388,0.31824,0.74687,-0.74742,-0.20441,0.35294,-0.11478,0.12285,-0.6295,-0.5233,-0.35524,0.16681,0.1674,-0.30735,0.52542,-0.021028,-0.07158,-0.4631,0.78725,-0.2527,0.0032615,0.101,0.11372,0.44158,0.65327,0.019111,-0.7152,0.39117
